91
104
107
95
91
101
106
94
89
102
107
96
89
101
106
96
89
102
106
94
89
102
107
95
89
102
106
93
89
99
108
95
88
102
106
94
88
99
106
93
89
99
107
94
86
98
106
94
88
98
106
95
87
99
107
96
91
104
112
101
96
109
118
109
104
119
128
120
114
129
137
130
124
138
146
138
131
148
155
147
141
155
164
155
149
161
171
163
156
168
178
165
162
174
182
174
163
177
184
174
170
179
185
178
169
180
188
177
171
177
190
177
169
180
185
176
167
175
185
174
165
174
181
171
162
171
176
169
158
166
173
163
153
160
171
157
149
157
165
154
143
155
161
151
141
148
156
146
136
142
152
140
132
137
146
135
125
132
143
129
122
128
138
125
115
124
133
123
111
119
130
118
111
118
128
117
108
116
126
118
106
113
126
117
109
117
129
119
110
120
129
123
112
120
134
124
116
125
135
127
120
125
139
129
120
129
143
134
124
132
143
138
126
136
145
138
128
137
146
141
129
137
147
142
131
138
150
139
131
135
149
140
129
138
148
142
130
135
149
139
126
133
146
138
126
131
145
136
124
130
141
134
120
128
139
133
119
126
136
128
117
124
134
126
114
117
129
124
111
116
128
120
106
112
124
117
102
110
120
115
102
106
118
112
98
105
115
108
97
100
113
106
95
100
111
105
93
98
111
103
90
94
110
103
88
95
106
99
89
92
105
100
87
93
107
100
86
91
104
98
87
92
103
98
88
91
103
97
87
90
105
100
86
91
103
99
86
90
106
99
87
92
104
100
89
89
106
100
87
89
104
101
86
92
104
99
87
93
104
100
88
91
105
101
87
90
106
100
87
90
104
99
88
90
106
101
87
90
105
100
87
89
104
100
87
89
104
99
84
88
103
99
86
88
102
99
88
87
102
99
85
88
104
99
88
91
105
102
91
94
109
108
98
101
115
117
106
109
127
127
117
119
137
139
125
130
147
146
136
140
156
157
144
149
163
163
152
153
172
170
162
162
177
176
164
166
181
180
170
171
186
185
172
172
185
186
172
174
189
186
174
174
187
186
172
173
187
184
170
171
182
181
168
167
182
179
164
163
179
175
163
161
172
172
158
155
169
168
154
152
164
161
148
146
160
157
145
140
155
152
140
135
151
148
135
133
144
144
129
127
140
140
126
122
136
136
119
120
131
131
116
115
129
131
116
114
126
128
113
112
125
126
113
112
127
127
115
113
128
130
114
115
128
132
117
118
131
134
121
118
135
136
125
124
137
140
127
125
138
142
129
125
143
144
134
129
144
145
135
130
145
146
134
131
145
148
136
134
146
149
136
131
145
150
134
132
143
146
135
131
144
147
134
129
141
145
132
126
141
142
129
123
137
138
127
120
134
137
123
119
132
134
120
116
128
132
118
112
124
127
115
109
121
127
111
106
118
121
108
102
116
117
106
99
112
116
104
99
108
114
101
93
108
112
98
92
104
109
97
91
102
108
93
89
100
106
93
87
100
106
94
87
98
105
92
86
96
103
89
85
98
102
92
87
96
104
90
84
97
103
93
85
97
105
91
86
97
104
91
85
95
104
90
84
99
102
94
86
98
105
93
84
98
104
94
86
100
103
93
86
97
104
94
86
98
105
93
85
97
104
95
85
97
106
92
85
99
106
94
87
95
104
93
84
97
105
91
84
96
103
92
84
95
105
91
84
96
102
90
81
95
102
91
81
92
100
92
83
92
103
90
82
96
106
95
88
99
112
101
96
108
119
112
107
118
130
120
115
127
140
131
125
137
150
140
134
146
157
149
142
153
164
157
150
161
173
162
155
167
176
171
161
171
180
173
164
174
186
174
167
175
185
175
167
175
186
176
166
178
185
176
166
174
183
175
164
171
182
170
161
166
178
167
156
166
174
163
152
163
171
161
150
158
168
157
146
151
163
152
138
148
156
149
135
144
154
142
131
137
148
137
125
133
141
135
120
128
138
127
115
121
132
123
111
119
129
121
106
116
127
117
109
113
126
118
105
112
124
120
104
115
126
120
108
117
127
121
109
119
131
124
115
120
135
127
117
125
137
132
119
126
140
133
124
129
143
136
126
133
148
140
127
135
149
140
131
137
149
143
131
137
149
143
133
137
150
141
132
137
152
142
132
134
150
141
131
134
150
141
129
133
145
139
129
131
144
137
125
130
140
136
121
128
137
133
118
125
136
130
118
122
133
126
113
116
129
124
111
114
128
120
107
113
126
117
105
108
122
114
101
107
119
115
102
102
119
111
100
102
115
108
97
100
113
108
94
99
112
105
91
97
111
105
92
95
109
105
92
94
108
104
90
93
107
103
90
93
107
103
91
93
105
103
91
91
105
103
88
92
107
103
90
92
107
103
89
92
104
104
89
91
106
102
90
92
108
103
91
93
106
103
91
93
106
105
91
92
107
103
91
91
105
104
90
92
106
104
90
93
108
104
91
91
105
103
90
92
104
103
89
89
104
104
89
89
105
103
89
90
107
104
89
92
107
108
94
97
113
112
99
103
119
120
110
113
129
129
117
120
135
139
127
130
146
146
136
136
152
155
144
145
159
161
148
151
166
167
156
155
172
171
161
159
174
176
164
162
177
176
167
164
178
180
165
165
177
179
167
164
179
177
166
163
175
176
161
161
173
173
162
157
171
170
157
153
169
168
155
151
163
163
151
146
157
159
144
142
154
155
140
136
150
149
136
131
143
145
130
125
141
139
127
120
133
132
121
115
129
129
116
110
123
124
111
106
119
122
107
103
117
119
104
102
116
117
106
101
115
117
103
102
116
120
108
104
118
124
110
108
121
125
115
109
123
131
116
114
127
135
121
117
130
136
123
122
134
139
126
125
137
144
129
126
139
146
132
129
141
145
134
127
141
147
134
129
143
147
135
131
143
146
134
128
142
144
134
128
140
144
133
127
138
141
130
123
137
142
129
122
133
139
126
120
131
136
124
118
128
134
120
113
125
131
116
111
121
127
115
108
118
125
111
104
117
120
108
102
113
119
106
100
112
115
104
95
108
111
103
93
106
111
100
93
105
109
98
91
101
110
96
90
101
107
94
89
101
106
94
87
99
105
95
86
97
105
92
84
97
103
93
84
95
106
94
86
95
104
93
85
97
105
93
84
96
103
92
86
96
104
94
85
95
105
96
83
97
105
93
87
96
105
93
86
97
104
93
85
95
106
94
87
97
105
95
86
96
105
94
87
97
106
95
87
97
107
97
87
99
107
98
88
100
111
102
95
106
118
109
101
113
125
117
112
123
135
128
121
134
145
139
130
143
156
146
141
150
162
157
148
159
171
163
157
167
178
172
161
173
184
176
168
175
188
178
171
179
191
180
172
180
193
183
175
182
193
183
174
180
192
184
174
180
191
181
171
176
188
177
169
176
185
175
164
171
182
171
161
167
176
168
155
163
174
163
152
158
168
160
146
151
163
154
142
148
160
151
138
145
155
146
134
138
149
140
128
131
145
136
122
129
141
131
120
125
136
128
118
122
135
125
115
121
132
124
113
119
131
123
112
118
133
124
115
121
134
127
116
124
135
129
118
125
138
131
121
127
141
135
123
130
143
136
126
133
145
140
129
135
149
143
130
138
151
143
133
139
149
144
133
138
150
147
134
138
151
144
134
138
150
145
133
139
151
144
132
136
149
144
132
134
148
140
128
133
144
140
126
131
143
136
125
127
142
135
123
124
138
131
120
120
135
130
117
119
132
128
114
115
129
123
110
113
124
120
107
111
123
117
104
107
121
114
103
105
118
112
100
102
116
110
98
99
114
109
97
97
112
105
93
96
112
105
94
95
110
105
91
92
106
105
93
92
108
102
92
91
108
104
91
94
105
104
90
92
106
103
89
90
108
103
88
91
106
101
91
89
106
101
90
91
104
103
88
92
105
103
90
92
104
102
90
91
106
102
90
91
106
103
92
90
103
102
89
89
106
104
91
90
103
105
88
91
105
102
92
90
105
103
90
89
103
103
88
88
103
103
91
91
105
107
92
92
106
107
96
97
115
114
105
106
121
124
112
114
130
135
123
126
139
145
132
134
150
153
141
143
158
161
149
150
165
169
158
157
172
174
164
162
177
180
167
168
182
183
172
170
185
187
173
172
186
188
173
172
185
187
174
173
184
186
173
168
183
184
170
167
180
181
169
163
176
178
165
160
175
175
160
158
169
171
156
156
166
166
153
148
162
164
149
146
158
158
146
139
153
155
140
138
149
149
137
131
143
146
132
129
141
141
128
123
137
138
124
119
131
134
119
117
130
131
119
117
128
133
118
114
129
131
120
115
128
132
120
116
130
135
122
117
130
138
123
120
134
138
128
120
135
141
129
124
138
143
129
125
140
143
133
126
141
145
133
130
142
144
135
130
141
150
135
129
144
146
135
129
142
146
136
130
142
146
135
127
140
146
134
127
138
142
131
126
137
142
131
122
135
140
127
123
132
138
127
118
131
136
123
115
127
134
120
114
123
131
118
108
121
126
115
108
117
124
111
105
114
122
110
101
112
118
108
98
110
116
105
97
107
115
104
96
105
112
101
94
104
111
99
93
103
111
101
91
102
108
98
90
100
108
96
89
99
109
94
88
98
107
97
89
99
108
95
87
97
106
94
87
96
105
94
84
98
106
97
87
97
107
95
88
94
106
94
86
96
105
96
86
98
104
96
84
98
106
94
84
95
105
94
86
97
104
93
86
95
105
97
85
96
104
96
84
96
104
95
85
96
105
93
86
94
106
95
86
94
104
94
86
94
104
96
83
94
104
94
83
93
106
97
88
96
109
100
91
103
113
108
98
110
121
114
105
118
130
125
115
128
139
132
123
133
149
141
134
142
158
149
140
152
162
157
147
158
168
161
152
161
175
165
156
166
177
171
159
169
177
172
162
168
181
172
164
171
180
174
162
168
179
172
161
167
180
170
160
166
175
169
155
164
174
165
152
158
170
161
151
156
165
157
145
151
161
153
142
145
159
148
138
143
153
146
133
137
150
140
130
133
144
139
123
130
141
132
122
124
137
130
116
122
131
127
113
118
129
123
110
116
127
121
108
116
126
120
108
114
127
121
110
115
130
123
113
116
131
124
115
118
131
126
115
120
132
128
117
122
134
129
120
124
139
133
123
127
141
135
125
127
142
138
125
130
142
139
124
130
143
138
126
129
141
138
127
130
143
139
124
131
143
138
125
129
140
137
124
125
139
135
121
126
136
134
120
124
135
130
117
120
133
130
115
118
130
125
115
114
129
124
111
113
126
121
109
110
121
118
105
108
119
117
103
105
115
113
101
103
114
112
97
100
110
110
96
97
110
106
95
95
107
107
93
93
108
104
91
92
106
103
90
90
105
103
89
91
105
102
90
88
105
101
88
90
103
102
87
89
104
101
90
89
104
101
88
89
102
101
89
89
103
103
90
88
102
101
89
88
105
102
89
89
105
102
91
89
104
103
89
90
103
102
89
87
104
102
89
90
102
103
89
88
103
103
90
88
103
103
88
88
103
101
90
88
102
100
88
86
101
102
86
88
99
101
86
88
99
100
87
86
100
100
87
83
98
101
86
85
99
100
86
85
99
101
90
87
102
102
89
90
103
109
96
98
111
117
106
105
121
125
115
116
131
136
123
124
139
146
132
132
148
152
141
140
154
160
148
148
162
166
154
153
166
171
160
159
170
175
164
160
175
177
165
162
176
180
169
164
177
182
169
167
178
180
169
164
176
178
165
162
175
176
164
159
172
173
160
156
166
172
158
153
164
166
152
148
158
161
149
143
154
158
145
140
150
157
140
136
146
149
137
130
143
145
132
126
138
140
128
121
131
136
124
118
128
133
120
114
125
131
116
110
125
127
115
108
120
126
114
110
122
127
115
111
122
129
116
110
125
131
119
111
126
131
120
115
126
136
123
116
131
137
125
118
133
139
130
123
137
141
131
124
137
144
131
126
137
145
134
127
137
145
135
127
140
146
135
129
139
146
136
127
139
145
133
126
139
143
134
126
137
143
131
123
135
140
130
122
134
139
129
121
130
137
124
118
128
136
121
116
124
133
120
113
122
129
117
110
120
127
117
105
117
123
111
104
113
123
110
101
110
120
108
99
109
116
106
95
106
114
104
94
105
111
103
92
102
111
99
92
102
111
100
89
99
110
97
90
97
108
98
88
98
107
98
89
98
108
97
88
99
105
97
90
97
107
98
89
98
108
97
89
96
109
98
88
97
108
97
90
97
110
98
88
97
108
100
87
96
108
100
89
100
108
99
89
98
109
98
89
99
107
98
86
98
109
100
89
96
108
98
90
96
108
98
90
95
107
97
88
95
107
98
89
96
107
98
88
94
108
97
88
95
105
97
85
94
105
96
86
94
104
98
87
96
107
100
91
96
112
103
94
104
116
113
102
112
125
121
111
122
136
128
120
130
144
137
128
137
150
146
138
143
159
152
142
151
165
161
149
157
171
164
155
161
172
167
157
165
177
171
162
167
180
174
163
169
181
174
163
168
180
174
162
168
178
172
158
164
176
171
159
163
173
168
155
159
171
165
153
154
168
159
147
150
163
156
144
146
159
151
140
143
155
148
133
138
149
145
130
133
144
136
124
128
140
133
121
122
134
128
117
118
131
123
112
113
128
121
109
111
125
119
106
108
122
118
106
109
123
120
105
111
123
120
109
112
125
119
110
113
128
123
113
116
132
125
114
117
133
130
117
123
135
133
121
125
139
138
124
127
141
139
128
129
146
141
128
132
145
142
131
131
144
144
132
131
145
143
130
132
146
142
129
132
146
143
127
130
143
142
129
129
144
138
125
126
140
137
125
121
137
135
122
123
135
134
119
120
132
129
115
116
128
127
114
113
127
123
109
111
123
122
109
107
122
118
106
105
119
116
102
103
116
114
100
99
112
112
97
98
110
109
94
94
111
109
96
95
106
107
91
93
104
108
90
92
104
105
91
91
104
105
91
91
102
105
91
91
105
105
93
89
104
103
90
90
106
103
91
90
104
105
91
88
105
104
92
90
104
104
91
89
103
105
93
89
106
105
94
90
105
106
94
90
105
104
92
89
103
106
92
92
103
107
93
90
105
103
93
88
104
106
91
89
104
104
91
90
102
105
91
89
102
105
92
89
100
104
90
88
100
105
91
89
101
103
92
87
103
106
93
91
105
111
97
98
111
118
104
103
119
125
113
115
129
137
125
124
139
143
133
133
149
152
144
141
156
163
151
148
163
170
160
155
169
175
164
161
175
182
170
167
180
184
173
169
180
187
175
171
183
188
175
172
186
189
176
171
183
187
174
170
181
186
173
168
178
183
169
164
175
179
168
160
172
174
161
157
167
171
159
151
163
165
155
146
157
162
148
142
152
159
145
137
151
152
140
134
143
149
136
127
138
144
131
124
134
138
126
120
129
135
124
113
126
131
119
112
124
129
118
110
121
128
116
111
121
129
117
111
123
131
119
112
125
130
121
115
125
136
122
117
127
137
126
120
131
138
129
121
133
142
130
124
135
145
134
128
138
147
136
126
141
148
136
130
141
149
139
131
142
150
139
132
142
150
140
131
140
151
139
131
141
147
139
130
139
149
136
129
139
145
135
126
135
143
133
123
133
140
130
121
128
138
129
117
128
134
125
115
124
131
120
109
120
127
118
107
117
125
115
105
114
123
111
103
112
119
110
98
107
117
106
96
105
116
104
94
103
112
102
93
101
111
100
92
97
110
100
89
97
107
99
88
96
108
98
88
96
106
95
87
95
105
95
86
92
106
97
85
94
107
98
86
95
104
97
86
95
106
98
87
93
106
96
87
95
107
97
87
94
107
98
88
96
105
99
86
96
107
97
86
95
105
99
86
94
106
99
85
93
107
100
88
95
107
97
87
94
107
98
87
92
105
97
86
93
107
96
85
92
104
99
87
91
107
96
86
89
103
96
85
91
103
98
84
90
103
95
83
89
102
97
83
91
105
98
86
94
107
101
92
99
113
111
99
108
124
117
111
117
132
127
119
127
140
140
129
137
154
149
139
146
161
158
149
154
169
166
155
162
175
171
162
166
181
178
166
171
184
180
171
174
190
183
174
175
191
185
174
178
191
184
175
176
191
186
173
175
189
182
172
173
187
179
169
171
182
177
164
166
179
172
164
163
176
172
156
160
170
166
153
155
167
161
147
151
161
158
146
145
157
153
139
141
154
149
135
137
148
144
128
132
143
139
126
124
139
135
122
121
138
132
120
120
134
132
116
117
130
128
116
118
131
128
116
118
133
130
117
119
133
131
119
121
135
134
122
124
138
136
123
126
142
139
127
127
144
141
129
131
145
144
131
133
147
146
132
133
148
148
134
135
150
147
135
135
150
150
135
135
151
147
133
135
149
148
134
135
149
147
133
133
147
145
133
132
145
142
130
128
142
140
128
126
139
139
125
125
137
135
123
121
134
132
121
117
131
132
116
114
129
126
115
111
125
125
111
107
121
120
108
105
119
119
106
102
117
115
104
99
113
115
100
98
111
111
98
95
108
112
97
95
104
108
94
92
104
108
92
90
104
105
91
89
103
103
93
88
104
106
90
88
102
106
91
88
103
103
93
86
103
103
92
87
102
103
91
86
101
103
92
88
101
104
90
88
101
105
90
90
102
105
92
88
101
105
92
87
102
105
93
88
101
106
92
87
99
104
91
86
99
106
92
88
99
105
90
88
100
104
91
86
100
103
91
87
100
104
90
84
98
102
90
84
98
101
89
83
98
100
89
83
98
101
91
83
98
101
90
83
96
101
90
86
100
106
94
89
106
111
102
98
112
120
110
107
121
132
122
117
131
138
130
126
142
150
140
134
151
160
147
144
159
165
156
151
164
173
162
157
171
176
167
164
175
182
171
165
178
183
176
166
180
188
175
169
180
188
176
169
182
187
177
170
180
187
175
167
178
185
172
164
175
181
168
161
171
177
164
156
166
174
161
153
163
169
156
148
156
165
153
143
154
160
147
138
148
154
144
135
144
150
138
129
137
145
131
125
135
138
129
118
128
136
125
115
126
133
121
112
119
129
119
108
118
128
116
107
120
127
116
108
119
126
118
109
119
128
120
111
122
131
122
113
124
133
125
115
126
137
128
120
127
140
130
122
132
140
134
124
135
146
135
128
136
147
137
127
138
150
139
130
138
147
140
131
138
150
139
129
139
148
138
130
137
148
138
128
137
147
136
128
134
144
135
124
131
142
131
123
128
139
131
120
128
138
128
116
124
134
126
113
121
130
121
111
117
130
119
109
115
128
118
105
112
123
115
101
109
119
110
98
106
117
106
97
103
115
107
96
98
111
102
92
100
109
101
89
98
107
99
87
96
105
99
86
93
105
98
87
92
105
97
85
91
104
96
83
92
102
97
83
90
101
95
84
90
103
93
83
91
103
97
83
92
102
94
86
90
102
96
84
91
102
97
84
90
103
97
86
89
105
95
86
89
103
98
86
89
104
97
84
91
103
99
86
90
102
97
84
91
103
97
85
90
102
96
84
88
102
98
82
88
102
96
83
89
103
97
84
87
101
96
83
88
102
93
81
86
100
97
82
88
101
96
85
89
104
100
88
93
108
107
96
102
116
113
104
108
125
123
115
119
135
134
124
129
146
145
134
139
155
153
142
145
161
160
149
154
169
166
156
160
175
172
162
164
179
176
164
168
183
178
167
171
185
182
170
170
186
181
169
173
185
183
170
169
184
182
167
171
183
179
166
164
179
177
164
163
176
174
160
159
171
170
156
155
168
165
151
149
163
161
147
144
158
155
140
140
153
149
135
136
148
144
130
130
144
140
125
124
139
133
119
120
133
130
117
117
128
125
112
112
126
124
110
108
122
123
108
108
122
122
110
108
123
122
111
108
125
124
114
111
127
127
115
114
130
129
119
117
133
132
121
122
137
138
125
126
142
141
131
128
142
144
132
132
146
148
135
132
146
148
136
136
149
149
136
136
150
150
138
136
150
151
137
132
148
149
137
134
147
150
135
133
146
147
133
130
144
143
131
129
142
143
129
126
136
139
128
121
133
138
124
117
132
135
120
115
130
130
115
112
127
126
115
109
123
124
112
108
121
121
109
101
118
120
107
100
115
117
104
98
113
116
102
98
109
113
98
96
109
111
97
94
108
110
96
93
104
108
95
92
104
108
94
90
103
108
94
89
102
107
94
89
103
107
95
88
103
107
94
89
102
105
95
89
101
108
92
87
100
105
94
88
102
106
93
89
99
107
94
89
99
107
93
88
101
108
94
88
100
108
95
89
100
106
95
88
102
106
94
88
101
107
96
88
100
106
94
89
99
107
94
89
100
108
97
89
104
110
102
95
108
117
105
102
113
123
116
107
124
133
124
121
133
143
136
128
142
154
143
139
154
161
152
146
160
170
161
153
167
175
166
160
172
181
171
163
177
185
176
167
181
187
179
170
182
190
181
173
184
191
183
172
185
191
181
173
181
189
179
170
179
189
176
166
179
184
173
163
174
182
172
161
171
177
166
157
166
171
160
154
162
167
158
148
155
164
152
141
152
160
148
137
145
154
141
132
142
148
138
127
134
143
131
123
130
138
129
116
125
134
123
115
121
131
120
109
118
130
118
108
118
129
117
107
117
128
118
109
118
129
120
112
119
132
124
113
123
135
126
117
127
137
130
122
130
140
132
126
132
143
134
127
136
146
141
128
138
149
140
132
139
149
142
133
139
150
145
132
139
152
144
132
140
152
144
133
140
150
144
131
137
151
142
130
136
148
139
128
135
147
138
127
132
143
135
122
129
142
133
121
126
137
129
119
123
135
127
114
121
132
125
111
116
129
120
108
113
124
116
104
110
122
116
101
108
118
111
98
104
117
109
97
104
112
105
94
99
113
104
93
98
109
102
90
93
110
102
89
95
105
99
87
94
105
99
86
91
104
97
87
92
101
98
87
91
104
97
85
90
101
98
84
90
103
97
85
89
104
98
87
89
104
100
85
91
104
98
85
89
104
98
86
91
103
99
87
90
102
100
85
90
103
99
86
90
103
99
84
88
101
98
85
88
104
97
85
89
102
98
84
88
102
99
85
89
103
98
86
88
104
97
88
90
105
103
92
94
111
107
98
102
117
115
106
111
128
128
118
122
138
138
127
132
148
146
138
142
157
157
147
149
167
167
155
160
173
172
162
164
181
180
167
170
185
183
173
173
189
187
176
177
190
190
177
178
195
193
177
179
193
190
179
180
191
190
176
175
192
188
176
176
187
185
172
170
185
181
169
168
180
178
165
163
175
174
163
160
172
170
156
154
167
165
152
148
163
161
147
145
157
158
140
139
153
151
137
137
147
147
134
132
143
141
130
126
138
139
125
122
137
135
121
119
133
133
120
120
131
131
120
119
131
135
120
119
133
134
121
119
132
135
125
123
135
137
125
125
139
142
128
127
141
141
130
129
142
145
133
131
143
145
136
134
146
148
136
135
146
148
138
133
146
152
137
131
146
149
137
134
147
150
138
130
146
149
135
133
146
146
134
127
144
147
131
128
143
143
131
124
139
139
128
123
136
137
127
118
134
136
123
118
130
132
120
113
127
129
115
112
121
127
113
107
121
123
110
105
117
119
107
101
114
116
104
99
109
114
103
96
110
111
101
93
106
111
98
93
104
109
95
91
102
108
92
90
100
104
93
86
101
105
93
87
100
103
93
86
99
103
90
87
99
104
90
86
97
101
92
84
96
102
90
84
97
103
90
83
96
104
90
84
98
103
90
84
96
103
89
82
95
103
90
84
94
102
92
81
97
103
90
84
95
102
90
79
95
101
91
83
95
101
92
78
96
102
91
83
95
101
90
82
96
102
90
83
92
100
91
82
95
101
91
85
96
105
92
88
99
108
99
93
108
116
108
102
113
124
117
111
125
134
126
122
133
146
137
131
145
154
144
139
151
162
154
147
158
168
161
155
163
175
166
159
169
179
172
161
174
183
174
166
176
184
176
168
177
186
175
168
180
185
177
168
177
185
176
167
174
185
175
165
171
181
172
158
170
178
166
159
167
174
162
152
163
170
160
150
159
166
156
143
152
163
150
140
148
159
146
133
143
150
144
132
138
148
135
126
133
141
134
121
130
138
128
119
126
132
123
113
121
130
123
110
119
128
121
108
116
127
118
111
117
128
120
108
120
129
121
112
119
132
123
115
122
135
124
115
124
136
128
119
125
138
129
120
128
140
132
121
131
144
134
125
132
144
135
124
135
146
137
128
134
144
139
128
134
146
139
127
136
147
136
127
134
144
138
128
132
143
137
122
131
143
135
123
127
141
133
118
126
139
129
117
124
137
128
114
120
132
124
113
119
129
123
109
115
128
119
106
113
122
117
104
110
120
113
101
106
120
111
99
103
115
108
96
102
112
105
94
97
110
103
89
95
106
103
87
93
105
100
87
93
103
99
85
92
104
97
86
88
101
96
83
88
101
96
85
87
101
95
83
87
101
94
84
86
100
94
81
87
100
95
81
86
98
95
82
85
100
95
81
86
101
93
81
85
99
93
82
83
99
94
82
87
99
95
79
85
100
96
82
84
99
95
79
83
98
96
82
85
101
95
80
85
99
96
83
86
99
96
80
83
98
93
82
83
98
94
81
83
96
95
82
85
101
98
85
87
102
101
88
93
107
106
97
99
118
116
105
110
124
126
116
118
137
136
124
129
145
144
137
138
153
154
144
147
160
161
151
152
167
166
157
156
173
171
161
163
178
176
164
167
178
181
167
166
183
180
168
169
182
181
169
168
180
181
169
167
178
180
168
163
177
178
161
156
174
175
160
157
173
169
155
155
165
165
152
149
162
162
144
139
158
157
142
141
152
151
137
136
147
148
133
130
142
142
126
119
139
135
123
120
131
132
118
116
126
127
113
111
125
124
111
107
121
121
110
106
118
121
107
106
119
120
109
107
122
122
112
106
122
124
113
110
125
127
116
113
127
129
119
117
129
135
123
116
133
136
125
123
136
140
127
122
140
143
131
127
140
144
133
128
145
147
135
130
144
146
133
128
145
146
134
131
143
146
134
128
142
147
134
129
140
144
133
127
138
143
131
124
136
140
125
123
135
137
124
120
130
136
122
116
128
132
119
113
125
129
118
110
125
126
114
109
120
123
111
104
116
120
106
102
113
119
106
99
111
116
105
96
109
113
100
94
105
111
98
93
103
110
98
91
103
108
98
88
103
106
95
88
102
106
95
88
99
103
93
87
98
105
93
88
99
103
91
86
98
105
94
87
98
105
93
86
98
103
93
86
98
104
93
86
97
103
92
86
95
106
92
86
95
105
91
85
96
104
91
84
97
105
92
85
96
105
93
84
97
103
93
85
96
102
92
84
95
103
92
84
95
104
93
84
96
102
93
85
97
104
93
89
99
107
98
88
101
115
104
99
113
121
114
104
122
131
123
118
131
140
134
122
139
151
141
137
147
157
151
140
153
166
157
148
161
171
162
157
167
178
168
159
170
179
170
164
173
183
173
163
174
184
174
167
175
184
174
166
176
183
175
164
172
182
172
163
169
178
169
159
167
176
166
155
163
171
161
151
159
168
159
145
153
164
153
141
151
156
147
137
144
153
142
133
139
146
137
126
133
141
130
121
128
135
127
115
122
131
121
110
118
126
117
105
114
123
114
102
110
120
111
100
108
120
112
100
107
120
111
102
108
121
114
104
110
124
114
106
115
126
120
109
117
129
121
112
119
135
127
119
124
138
129
119
127
140
134
123
130
142
135
126
131
144
138
128
135
147
139
127
135
145
140
128
135
147
140
127
137
144
138
128
134
145
137
127
133
142
139
125
131
142
133
120
126
140
133
120
126
136
131
115
118
134
127
116
119
131
124
111
113
128
121
110
112
125
117
104
106
123
114
103
106
120
112
99
105
115
109
100
100
116
105
95
98
111
106
93
97
108
104
90
96
107
103
88
94
107
102
90
90
106
98
88
90
104
97
86
88
104
97
86
88
103
96
84
88
100
98
85
86
101
97
86
87
102
97
84
89
101
98
84
88
101
99
85
89
100
98
84
88
101
99
85
87
102
96
85
88
102
98
86
88
100
99
85
87
99
99
87
89
103
99
87
87
103
99
85
87
99
99
85
86
103
99
88
90
105
103
91
93
109
108
97
99
114
116
103
107
124
124
116
117
135
134
124
127
144
144
138
141
154
155
146
148
165
166
153
155
172
172
162
163
179
180
168
170
182
183
172
173
187
188
177
176
190
187
178
177
192
190
179
175
191
191
180
177
191
191
176
175
189
190
175
176
184
186
173
168
183
180
169
166
180
179
164
159
176
173
162
159
170
171
157
154
165
164
150
147
161
160
148
146
155
156
142
137
152
151
138
134
145
146
132
128
141
140
127
124
139
135
125
119
134
133
121
115
130
131
118
115
129
130
117
115
127
128
117
115
129
129
120
117
131
134
121
119
133
136
122
121
134
138
127
121
138
141
129
127
139
143
130
128
143
146
134
131
143
147
135
131
145
150
137
132
144
149
136
133
147
150
137
134
147
150
137
134
145
149
137
134
143
147
137
130
143
146
134
129
141
144
133
127
137
141
129
124
135
140
126
123
131
137
124
119
129
135
122
114
127
132
118
113
123
129
113
109
120
125
111
105
117
122
108
104
115
121
106
101
112
116
105
98
110
113
104
96
108
112
102
90
106
110
98
92
105
110
96
89
102
109
96
90
100
108
93
86
99
108
95
88
100
106
94
84
100
105
95
85
99
103
93
85
98
104
93
86
100
105
94
86
96
104
94
86
100
105
93
86
98
103
95
87
99
106
92
87
98
105
95
86
98
105
95
87
98
107
94
88
98
105
93
88
97
103
95
84
97
105
92
85
97
105
93
86
97
105
92
87
97
107
94
88
98
108
96
91
101
113
102
96
107
117
111
102
118
127
119
114
126
138
129
124
134
146
139
134
144
156
148
141
153
166
157
151
161
172
164
155
167
178
169
162
174
182
174
169
176
188
177
168
181
188
181
172
180
191
181
173
180
191
179
172
180
190
180
170
178
187
177
168
175
185
175
166
173
181
170
161
168
178
167
157
163
172
163
154
160
169
158
149
155
164
155
144
152
159
153
137
147
156
146
135
141
152
141
128
136
146
138
127
131
142
133
120
127
139
129
119
125
135
125
113
119
134
124
115
121
132
123
114
119
133
124
116
120
134
125
115
124
136
127
117
125
137
131
119
129
142
133
122
128
141
134
123
131
144
136
126
133
145
139
129
134
147
140
129
137
149
140
131
137
148
142
131
136
150
142
132
135
147
142
130
135
147
140
130
132
145
139
126
133
143
137
125
130
142
136
123
128
140
134
121
126
137
129
117
120
135
126
115
118
130
124
111
114
128
121
111
111
125
118
105
111
121
114
106
106
119
113
102
105
117
112
97
102
113
109
95
100
112
105
95
96
110
104
93
96
108
105
91
94
106
102
90
92
107
101
89
92
105
102
88
91
105
101
87
91
103
99
86
89
101
101
85
90
103
100
87
91
103
102
86
89
103
98
87
89
103
99
87
89
102
101
86
88
103
99
88
89
103
102
86
87
102
100
86
88
100
98
87
88
102
99
86
89
102
98
85
87
100
97
87
88
101
99
84
87
100
98
85
86
102
99
83
87
100
97
85
87
100
98
85
87
100
100
87
89
105
105
94
95
113
113
102
103
120
122
109
110
130
133
121
124
140
141
129
129
148
150
141
141
156
156
145
147
164
164
157
156
171
171
160
157
176
175
165
164
180
179
167
167
181
181
170
168
183
181
171
167
183
182
168
169
182
181
170
165
180
178
167
164
178
177
163
161
174
175
160
157
168
170
155
152
164
164
151
149
162
160
148
144
156
157
143
141
151
151
140
133
147
147
134
129
142
142
128
127
137
137
126
122
133
134
119
118
128
133
117
115
127
126
114
113
124
127
114
109
123
126
115
109
123
125
114
111
126
128
117
114
128
130
119
115
130
132
121
118
131
136
124
123
134
139
127
122
136
140
129
125
138
143
130
127
141
143
133
128
140
144
133
129
143
144
134
130
141
147
134
129
141
144
133
129
138
145
129
127
137
145
129
126
138
142
129
124
136
139
127
121
132
139
123
119
129
134
121
116
126
132
118
112
124
130
116
109
121
125
113
108
118
123
110
104
115
119
107
101
113
118
106
98
110
114
102
95
108
113
102
95
106
111
100
92
105
109
99
91
102
108
98
89
102
107
96
90
100
106
95
88
101
105
95
87
101
106
96
87
101
105
96
88
99
106
96
86
98
105
96
85
98
105
94
87
100
105
95
84
100
106
95
88
101
107
98
85
99
107
96
88
99
107
95
86
98
107
97
87
99
106
96
87
98
108
95
88
97
106
95
87
98
106
95
89
96
107
95
85
97
104
94
85
97
104
95
86
96
103
96
86
95
107
97
89
99
110
99
94
103
117
107
100
113
123
115
108
121
133
125
119
128
142
134
126
138
148
141
135
146
155
147
142
153
162
158
147
159
169
163
152
164
174
166
159
166
179
171
160
169
180
172
162
170
180
172
163
171
181
172
162
172
179
169
162
168
179
170
159
166
176
167
156
161
172
162
152
159
169
161
146
158
163
156
144
150
162
151
139
145
155
149
135
140
151
141
129
134
146
137
124
129
139
132
117
124
135
125
114
119
132
122
110
116
127
118
106
113
125
116
106
112
121
113
105
109
123
115
106
111
124
116
106
112
126
116
109
115
130
121
111
121
131
127
114
122
136
129
117
126
137
131
122
129
140
134
125
130
143
138
124
133
145
136
130
133
147
141
129
135
147
141
129
134
147
140
132
135
145
139
129
133
146
139
127
133
143
138
125
131
142
137
124
129
139
135
123
124
138
131
118
121
135
129
115
120
131
125
112
116
129
123
111
113
126
120
103
110
121
115
105
108
121
115
99
103
117
111
100
102
114
110
97
100
113
109
96
100
112
106
95
97
109
106
93
95
111
105
91
94
108
103
92
93
106
103
88
93
106
101
90
92
107
101
90
92
104
104
90
93
105
101
89
93
105
103
91
91
106
101
90
91
106
102
91
91
107
102
90
92
106
102
90
93
105
101
92
92
105
104
90
93
106
103
91
91
106
105
90
93
104
106
92
92
106
103
92
90
106
103
88
91
106
102
93
91
106
103
92
94
108
108
96
98
113
112
100
103
119
119
108
112
127
128
117
120
135
138
126
130
144
146
133
135
153
154
144
146
161
163
151
153
166
168
158
157
175
174
163
163
178
179
167
167
180
182
170
167
184
183
171
170
184
184
172
171
185
183
172
169
180
183
169
166
180
179
166
165
175
177
163
161
172
173
161
157
170
167
157
151
165
164
152
148
162
161
147
144
155
155
141
140
149
150
137
134
148
148
136
131
143
144
128
125
138
136
126
119
133
132
121
116
131
132
117
117
128
128
117
112
127
129
113
113
125
129
116
112
127
128
118
113
127
132
118
116
129
133
121
117
132
136
124
121
135
137
125
120
138
140
128
127
138
142
130
123
140
143
133
129
141
145
133
131
143
146
135
131
144
147
134
131
142
146
135
128
143
147
134
128
140
142
133
127
138
143
130
125
137
139
128
123
135
140
126
121
131
135
124
117
129
133
122
114
127
129
118
112
123
129
114
110
120
125
112
104
118
121
110
102
114
120
107
101
111
117
104
99
109
114
102
95
107
113
101
95
107
112
99
92
105
109
97
93
102
109
96
91
101
108
95
91
102
108
97
89
102
106
97
88
102
107
96
89
99
107
95
91
100
106
93
90
100
107
97
88
102
106
95
88
100
108
97
89
101
107
97
88
101
109
98
89
100
108
96
89
99
108
97
88
100
108
97
89
99
108
96
89
100
108
96
90
99
106
95
90
98
106
97
87
100
105
96
88
96
107
95
88
97
106
94
87
97
107
95
88
97
108
97
90
98
110
100
94
105
116
106
101
112
123
115
111
121
134
125
120
131
142
135
129
139
152
145
138
150
159
155
144
157
170
160
154
163
174
169
161
168
180
171
163
173
186
175
169
177
188
179
170
181
189
180
169
177
189
179
170
178
188
178
167
177
186
175
167
175
185
174
161
173
180
171
159
169
174
166
155
163
173
164
154
159
168
158
148
155
164
155
144
150
161
150
140
147
157
148
135
141
152
143
133
137
149
137
127
133
143
134
123
129
140
130
121
127
137
128
116
125
136
126
118
123
134
127
115
124
132
129
116
123
136
126
118
123
136
130
121
126
137
134
120
128
140
133
123
130
142
134
125
132
144
135
126
134
145
137
127
136
147
141
130
134
148
141
129
135
148
140
130
135
147
140
129
135
146
139
129
135
147
138
126
132
144
139
125
132
140
135
124
129
141
133
120
127
136
130
119
123
134
129
117
122
132
126
113
118
130
123
112
114
128
120
109
111
124
116
106
108
120
116
102
106
120
112
101
103
115
109
98
102
112
110
95
99
110
107
94
99
112
106
94
96
111
103
92
95
107
105
92
96
106
104
92
94
109
101
91
93
108
102
90
94
106
105
91
92
105
101
89
94
105
102
90
93
107
102
89
93
106
103
89
94
106
102
90
93
106
101
91
92
105
103
90
93
105
102
90
90
106
102
88
92
106
99
89
93
104
101
88
90
103
102
86
90
103
99
88
90
102
101
85
89
102
100
89
88
100
100
84
88
103
97
87
87
101
98
83
86
99
100
85
87
102
99
88
89
104
105
93
95
110
110
100
101
117
118
109
109
126
127
118
120
135
139
126
130
147
145
133
137
154
153
145
146
160
162
150
153
166
166
156
158
174
172
162
162
174
177
166
163
179
178
167
167
179
179
167
166
180
181
166
167
179
178
166
164
175
176
164
160
175
174
160
158
171
170
157
155
167
165
154
151
164
163
151
146
158
159
144
144
155
155
140
139
151
151
139
133
146
146
132
128
141
142
128
124
138
138
123
122
132
132
121
115
128
131
117
113
126
126
113
112
124
125
114
110
123
125
113
110
123
126
116
112
127
127
115
113
125
129
118
114
129
129
120
116
131
134
123
118
133
135
122
120
135
136
125
122
134
139
126
124
136
140
129
125
139
141
128
126
138
142
130
124
138
141
129
126
137
141
128
126
137
140
128
122
134
137
125
122
132
137
126
119
131
134
123
118
131
131
119
115
124
129
117
112
123
128
115
108
122
124
113
105
118
122
108
105
116
119
107
99
114
116
106
98
110
114
104
95
108
111
97
92
104
111
98
92
104
108
97
88
101
108
94
89
101
106
93
83
99
105
94
87
100
103
92
82
100
103
93
86
98
103
93
85
98
104
94
85
98
104
93
85
99
102
93
87
98
103
92
86
96
104
92
86
96
105
92
87
97
104
92
88
97
103
93
86
96
103
94
85
97
103
92
87
97
105
93
86
97
102
92
85
95
103
91
85
94
103
92
84
94
101
92
85
95
101
91
83
93
102
90
83
92
101
89
82
91
99
91
81
91
100
90
79
92
98
89
80
89
98
88
81
91
101
92
84
95
104
96
90
100
111
102
97
108
121
112
108
117
130
123
117
128
140
132
127
138
149
139
138
148
157
151
143
155
166
157
151
161
171
162
156
167
175
170
160
169
181
170
164
172
183
174
165
173
183
173
165
174
184
175
165
175
181
172
163
169
179
168
161
168
175
167
157
164
172
165
153
159
169
159
149
154
164
154
146
152
158
150
140
148
156
145
136
142
151
140
132
138
145
136
126
131
139
132
119
125
137
126
115
123
131
121
111
116
128
119
111
114
127
116
108
115
124
117
106
113
123
119
106
114
124
119
108
114
127
119
111
116
131
123
113
120
132
126
115
123
138
128
120
125
139
132
122
128
143
133
126
131
144
136
126
133
146
139
128
135
146
138
130
136
147
140
131
136
145
140
129
134
147
141
129
133
148
140
128
134
143
137
125
132
141
135
124
127
141
133
121
126
136
131
119
123
133
127
114
121
130
124
113
116
127
122
108
113
126
119
106
110
122
116
103
108
118
112
100
104
118
109
99
103
112
110
96
99
111
105
95
97
109
105
90
96
109
104
91
94
106
103
89
95
107
102
90
94
107
102
90
93
107
101
90
93
108
101
90
93
106
102
89
94
105
102
90
93
107
102
90
92
107
102
92
94
108
103
90
95
105
106
91
95
107
104
91
95
107
104
91
94
108
103
93
92
107
105
91
94
107
105
92
93
107
105
90
92
106
103
90
91
106
101
91
92
105
102
89
91
104
102
89
91
104
101
86
91
103
100
87
89
102
102
85
88
102
99
87
87
103
100
85
89
105
101
92
93
109
108
95
101
117
117
105
111
124
128
117
121
135
137
128
130
145
148
136
139
156
156
145
149
162
164
153
157
170
171
161
159
177
177
165
168
179
180
167
170
183
183
170
173
184
185
172
173
185
186
172
172
185
183
173
171
183
183
170
170
179
179
166
164
178
176
163
161
172
172
159
157
169
168
154
152
165
161
151
148
158
159
145
142
153
152
141
138
151
148
134
132
144
144
129
128
139
137
125
121
134
134
119
118
127
128
116
113
124
127
111
109
121
123
110
107
121
121
109
107
121
123
109
108
121
124
112
109
124
125
115
112
127
128
118
116
128
132
119
119
131
133
124
120
135
137
126
124
136
138
128
125
139
142
130
127
141
142
131
127
142
144
133
130
140
144
132
128
142
145
132
130
141
142
131
128
140
144
131
126
138
140
130
125
136
140
127
122
133
137
125
118
134
135
122
115
127
131
119
113
123
129
116
111
124
126
112
108
119
123
108
105
114
118
108
99
113
116
103
98
106
113
98
96
105
111
99
94
103
110
96
90
104
107
96
88
101
106
92
87
100
104
91
86
97
103
90
85
94
102
90
84
95
101
88
85
96
102
88
85
96
102
89
85
96
101
91
84
97
100
91
85
96
102
91
85
97
101
93
84
97
103
91
86
96
105
90
86
94
103
92
87
97
105
92
85
97
103
92
84
96
102
91
82
96
102
93
83
98
102
93
85
96
102
92
85
94
101
90
82
93
102
90
83
93
101
90
82
92
100
90
82
93
100
90
81
92
101
90
80
92
101
89
82
92
100
92
83
94
104
94
87
100
107
101
93
107
116
108
104
115
128
122
116
129
140
132
128
142
153
143
139
150
161
156
149
161
172
164
157
168
179
172
165
177
186
178
172
180
192
182
176
186
191
188
178
188
199
188
182
190
200
189
181
190
198
188
179
188
195
189
176
187
194
183
175
181
191
179
171
177
186
176
165
174
181
171
163
169
176
167
154
163
174
163
150
161
168
154
143
154
163
155
144
149
157
146
136
146
155
144
134
138
149
138
126
135
147
134
125
130
140
132
121
129
139
130
118
126
134
127
117
125
133
127
118
125
136
127
119
123
135
130
119
126
140
129
120
128
140
134
125
131
143
134
127
132
143
138
128
135
145
139
130
134
149
140
130
139
149
141
133
138
151
143
133
141
151
145
134
138
150
144
133
140
149
142
133
138
149
141
131
136
147
141
132
133
145
139
128
132
142
135
124
129
138
134
120
128
138
129
119
125
134
127
116
119
131
123
112
118
128
122
110
113
126
118
104
110
121
116
103
108
118
111
101
104
116
109
98
103
112
107
93
100
110
106
93
97
109
103
92
96
106
101
87
93
105
100
88
91
105
99
85
92
102
96
85
89
103
97
86
89
102
97
84
89
102
97
86
89
102
98
83
90
102
96
86
89
101
98
88
88
102
99
86
91
102
98
86
90
103
98
86
90
103
99
86
90
102
99
88
89
105
97
87
90
103
98
87
87
103
97
85
88
100
98
84
88
100
98
85
88
101
97
85
86
99
95
85
84
101
95
84
85
99
94
84
83
99
93
83
83
97
94
82
83
96
95
80
83
95
93
82
82
96
93
83
82
98
95
84
86
102
102
91
95
109
110
99
105
122
121
114
116
132
135
125
129
146
145
135
140
157
155
145
149
165
166
154
159
173
173
163
165
180
181
169
169
184
184
174
174
188
191
177
181
193
189
179
181
193
192
180
180
192
192
180
178
192
192
179
176
188
189
173
172
185
185
172
168
180
179
166
166
178
176
162
158
174
172
156
156
167
164
152
151
162
160
147
144
157
157
143
139
151
151
138
133
145
147
132
124
141
140
127
125
139
136
122
119
132
132
119
116
130
127
116
107
125
126
115
111
126
126
113
112
125
125
114
110
124
128
116
109
127
128
116
117
129
130
120
118
132
132
121
120
134
136
125
121
136
139
125
125
138
142
128
128
141
144
131
128
141
144
132
130
143
144
133
129
141
146
134
129
143
145
134
128
143
143
132
129
142
143
131
125
139
140
128
125
135
138
125
122
135
137
123
119
132
133
122
116
129
130
117
115
124
127
114
108
121
122
112
105
117
121
107
103
113
117
104
100
112
115
101
95
108
110
100
93
106
108
96
90
101
106
92
89
99
103
90
86
97
101
89
83
97
100
87
83
95
100
88
82
93
98
85
81
92
98
87
80
92
95
83
80
92
98
87
80
92
97
84
79
91
98
86
81
91
98
86
80
92
98
87
80
93
96
87
80
92
97
86
80
91
99
86
81
90
100
86
81
92
99
88
81
94
99
87
81
93
99
87
80
92
98
86
81
91
97
85
80
91
97
87
80
90
98
85
79
90
97
86
79
91
96
85
78
90
96
86
77
88
95
84
75
87
95
82
75
86
93
83
74
88
93
82
76
85
96
87
76
89
99
89
83
95
106
100
92
105
117
109
105
117
127
121
116
129
141
134
128
140
153
144
139
153
161
153
150
163
170
162
159
168
178
170
164
174
185
177
167
179
189
180
174
181
191
183
174
183
193
183
176
184
193
183
175
184
193
183
172
182
191
180
172
179
187
179
168
175
184
174
163
171
179
169
157
167
174
163
154
162
169
159
149
156
165
152
142
150
158
149
136
142
153
143
132
137
147
135
125
134
140
131
119
127
136
126
116
121
130
121
108
114
125
117
103
113
121
114
101
108
121
111
100
108
120
111
100
108
120
111
103
112
123
116
103
113
127
116
107
118
128
121
114
121
131
125
116
126
135
129
122
128
140
133
126
133
144
137
128
136
146
138
129
137
147
140
131
137
149
144
132
139
149
140
132
139
150
142
132
139
148
139
130
137
147
140
127
135
147
137
124
132
145
135
123
129
141
133
120
126
137
130
118
123
134
126
114
119
130
122
113
117
127
119
107
112
123
115
104
109
120
112
102
106
117
110
99
102
114
107
93
100
112
104
93
97
110
102
89
95
106
101
88
93
105
97
87
92
104
95
86
91
102
95
84
88
102
95
84
88
101
95
81
87
100
94
84
87
100
95
81
85
99
94
82
86
99
95
80
84
100
94
82
86
100
94
81
83
99
93
81
87
99
93
81
85
98
94
80
84
100
94
80
85
99
93
82
84
98
94
82
86
97
92
82
83
99
93
80
83
96
95
79
83
96
93
81
83
97
93
79
84
96
92
81
84
100
95
82
86
102
98
85
90
106
103
95
98
115
113
103
107
124
125
114
119
137
136
126
132
149
148
139
142
160
159
147
151
166
166
157
160
176
176
163
166
182
181
169
173
186
185
174
176
192
189
178
178
194
190
179
180
192
191
180
180
191
192
179
180
190
191
176
177
191
188
173
174
186
183
170
171
183
180
164
163
178
175
162
161
173
170
157
156
167
165
150
149
162
159
144
143
155
152
138
137
148
145
132
131
144
139
126
123
136
134
119
117
131
127
114
112
124
123
107
104
120
119
104
102
117
116
102
98
114
115
100
97
112
110
101
99
112
113
103
102
115
114
104
104
117
118
107
106
122
123
110
110
125
126
116
115
126
129
121
118
135
136
122
121
136
135
126
126
141
141
129
129
142
140
132
130
142
144
132
129
143
143
133
130
145
146
132
130
141
138
131
128
142
142
129
128
140
140
125
123
137
138
125
122
136
134
121
119
131
131
120
115
126
129
116
110
124
125
113
107
122
124
107
104
116
118
107
103
115
117
102
99
111
115
99
97
107
111
97
92
105
107
97
90
103
107
92
87
101
103
91
85
99
102
88
83
98
99
88
83
94
99
84
82
92
96
84
78
92
97
81
79
89
96
82
77
88
92
82
74
87
86
80
74
88
91
78
73
84
84
79
74
86
91
78
72
84
86
77
72
83
90
76
71
85
84
78
72
84
89
76
71
81
84
76
68
81
87
77
68
82
88
76
68
83
89
74
71
84
90
77
74
87
92
86
78
95
100
94
89
102
112
102
99
115
126
115
112
127
138
127
125
139
148
140
135
150
160
151
145
160
167
160
155
167
175
166
162
173
181
173
165
178
187
174
169
183
190
179
173
183
191
181
172
184
193
179
174
183
192
180
172
183
191
179
172
181
189
176
167
178
187
174
166
175
178
169
160
172
179
163
159
165
170
160
151
162
169
155
147
154
158
150
140
149
155
144
135
143
150
138
129
137
143
132
124
131
138
128
117
126
132
122
112
122
130
119
110
119
128
117
105
116
124
115
108
116
126
116
108
117
125
117
109
121
129
122
115
120
133
126
116
129
137
130
121
135
142
134
128
138
148
140
132
142
149
146
136
147
157
147
139
146
154
149
142
151
161
152
145
151
158
154
144
151
161
154
144
151
159
152
141
150
160
150
140
147
153
150
140
145
155
149
137
143
154
145
132
141
151
141
129
140
148
136
126
136
145
135
124
132
141
132
121
127
136
130
118
127
135
124
113
120
131
122
111
119
130
120
110
116
128
117
107
113
125
114
105
110
120
113
102
109
121
111
100
105
118
109
98
105
115
107
98
103
117
106
97
102
113
107
93
102
113
105
95
98
112
103
91
100
110
104
92
97
109
102
91
97
111
101
90
96
107
101
90
94
109
101
88
96
109
100
88
92
107
100
88
95
106
99
86
94
105
100
88
94
108
99
89
96
110
105
93
102
114
110
100
111
125
120
113
119
135
132
123
133
147
144
138
143
159
157
147
155
169
167
158
164
180
174
167
175
186
183
172
180
193
189
179
185
198
193
182
188
203
196
186
191
203
199
187
191
202
200
187
192
203
199
186
191
204
196
184
188
200
194
182
185
196
192
178
180
192
188
174
176
189
181
169
173
183
177
165
167
179
172
159
158
173
166
155
155
166
161
146
148
161
153
139
143
154
148
135
137
148
140
129
129
142
135
121
124
136
131
117
118
130
126
113
113
127
124
111
112
125
122
108
113
124
121
109
113
126
123
109
112
127
125
114
115
129
127
116
118
131
130
120
121
136
136
124
124
140
139
127
127
143
142
130
132
146
145
134
131
147
146
135
136
151
149
135
137
151
148
137
136
149
147
136
136
148
148
136
134
147
146
135
133
144
144
132
131
144
141
131
127
139
140
126
126
139
135
125
123
135
136
121
119
133
131
118
118
131
127
115
115
127
125
111
110
124
123
109
107
121
118
107
104
119
115
103
102
114
115
102
98
113
110
98
97
110
110
95
95
108
107
94
91
107
105
92
90
104
104
90
88
103
103
89
89
100
100
87
86
99
100
88
86
98
99
84
84
98
99
87
84
98
98
86
82
97
97
83
82
94
97
85
81
96
96
85
79
94
95
81
79
93
96
82
80
94
93
82
79
92
96
82
80
95
97
83
81
95
98
83
85
98
102
91
88
106
110
102
100
116
122
114
115
131
136
127
129
146
152
142
139
157
165
155
153
169
173
164
166
180
184
175
173
188
191
182
179
194
198
187
187
198
203
192
191
203
205
194
193
204
208
199
193
206
207
198
194
206
208
196
192
203
206
196
190
200
205
192
186
197
199
185
183
194
195
184
179
188
193
179
171
184
187
173
166
178
180
169
162
172
177
163
157
168
171
160
152
161
167
153
147
160
161
149
143
152
156
142
136
147
151
137
133
145
146
134
127
139
142
129
123
133
141
125
122
133
135
126
118
130
136
124
119
132
135
125
120
130
139
126
119
134
138
128
121
133
140
130
121
136
143
131
127
138
142
133
128
140
145
134
129
140
146
136
128
140
150
139
130
141
149
137
129
141
150
139
130
141
150
137
130
141
149
136
128
140
147
134
128
137
144
134
126
135
143
132
124
133
142
130
120
130
137
126
119
130
133
123
115
127
130
119
112
123
129
116
110
119
126
113
104
115
123
111
102
113
118
105
99
108
115
106
95
107
112
100
92
101
110
98
89
100
107
96
86
97
105
95
86
95
103
92
84
94
99
90
84
91
100
89
80
89
99
87
79
90
98
88
79
89
98
88
78
87
98
86
77
87
96
86
77
88
95
84
74
87
95
85
76
87
95
87
76
85
95
85
77
84
95
85
76
86
96
83
76
84
95
84
76
84
94
84
77
86
94
86
77
85
95
85
75
85
95
86
77
87
98
88
82
91
103
95
87
98
111
104
96
108
120
113
108
120
132
127
119
130
143
136
129
142
153
147
138
149
163
155
147
157
169
162
155
165
174
167
160
168
180
174
164
168
183
176
168
176
185
178
171
179
188
179
171
177
186
179
169
173
188
178
168
175
185
177
167
171
183
175
164
169
179
171
159
161
175
168
156
162
172
163
152
159
169
159
149
154
164
156
145
151
161
152
141
147
159
148
136
143
152
144
131
139
151
141
132
136
145
137
128
131
143
135
124
128
137
131
120
125
135
128
119
123
134
126
117
122
132
126
114
120
132
123
113
120
131
125
114
119
131
125
114
122
133
127
114
119
134
128
116
121
134
127
117
121
134
129
119
121
136
131
118
123
136
131
119
125
136
129
119
124
136
129
120
125
135
129
119
124
134
129
117
120
135
130
116
120
133
128
117
120
131
126
115
117
129
125
112
114
128
123
110
114
127
119
107
111
123
116
107
108
120
115
102
106
119
112
100
105
114
109
98
101
113
108
96
97
109
105
93
95
107
102
90
94
104
102
88
88
104
100
84
87
101
97
82
87
98
95
84
86
96
95
81
83
97
94
81
82
94
91
79
80
95
90
78
81
94
89
79
80
93
91
80
81
94
89
78
78
94
91
79
79
95
89
78
78
93
89
78
77
92
89
75
77
90
88
77
76
91
90
76
80
91
89
77
78
92
89
77
77
92
90
76
79
91
88
77
77
90
88
77
74
91
88
76
77
90
87
77
76
90
89
76
76
90
89
77
77
91
88
79
77
95
94
84
82
100
99
89
88
107
108
98
100
114
115
106
108
124
126
116
116
134
136
123
126
139
140
132
132
146
147
136
137
151
152
141
143
157
157
144
145
160
161
150
148
161
161
151
150
162
163
149
147
162
163
150
149
163
161
148
148
160
160
149
144
156
157
145
144
156
155
142
138
155
153
141
138
150
150
139
135
147
147
134
132
145
144
131
129
141
140
129
126
138
139
127
123
137
137
122
121
132
133
121
118
132
133
120
116
128
128
115
112
125
126
114
110
122
125
113
108
121
123
112
107
122
122
112
107
121
123
112
108
121
124
113
108
123
125
113
109
123
125
114
111
123
128
114
110
125
127
117
111
127
129
118
112
125
129
117
115
128
131
119
115
127
129
121
115
127
131
119
114
126
132
118
115
127
132
117
115
125
130
118
114
125
129
118
114
125
129
115
110
122
125
116
110
122
126
113
109
120
124
111
106
117
123
111
103
115
121
107
102
115
118
106
98
112
116
105
98
109
114
103
95
109
114
102
96
106
110
100
93
106
110
98
92
104
108
97
90
101
108
94
89
101
105
95
88
100
106
92
87
98
104
92
86
97
104
90
85
97
103
91
84
98
103
90
85
95
101
92
85
96
104
90
85
94
102
93
85
96
103
91
84
97
104
90
85
96
102
90
83
97
103
91
85
96
104
91
85
93
103
93
86
96
104
93
84
96
104
92
84
96
102
94
85
96
103
91
84
94
104
91
84
95
105
90
83
93
103
92
84
92
101
90
83
92
102
90
81
93
102
90
82
91
101
90
82
92
101
88
80
90
99
89
80
91
99
89
80
92
100
91
82
92
100
93
84
96
107
99
91
103
114
106
100
114
123
113
110
120
132
121
118
126
140
130
122
133
144
135
130
137
149
140
131
142
154
144
135
147
157
145
138
148
156
149
140
148
159
148
139
151
156
151
141
146
160
149
138
148
156
146
137
147
156
147
138
144
153
145
135
142
153
142
131
141
151
140
130
137
148
138
127
134
144
135
123
134
142
133
122
128
140
131
120
127
136
129
118
126
133
125
115
123
133
125
114
120
134
121
112
119
129
121
110
117
127
119
106
115
125
119
108
114
126
118
105
115
124
117
108
115
125
120
107
115
127
118
109
116
128
120
110
117
130
124
113
121
131
125
114
121
133
127
114
122
135
127
116
123
135
131
117
123
137
128
119
125
137
130
120
126
138
129
117
125
139
130
118
126
138
129
117
124
135
130
118
121
134
128
118
124
134
127
116
121
133
127
115
120
132
125
115
118
130
125
112
117
131
122
110
118
129
122
111
113
127
122
109
113
125
119
108
110
125
117
105
109
120
118
103
107
122
114
103
106
120
113
101
106
119
114
101
105
119
111
99
103
117
111
97
101
116
111
97
101
114
111
97
102
115
111
97
101
115
109
96
100
114
109
95
99
114
110
97
99
114
108
96
100
114
111
96
100
115
109
97
98
114
111
99
98
114
110
97
101
115
110
97
99
113
110
97
99
115
110
97
100
113
109
97
100
114
110
96
99
112
111
98
99
113
110
98
100
114
110
98
98
114
109
97
97
113
110
96
98
112
109
98
98
112
109
97
96
111
107
95
97
110
109
94
96
112
108
95
94
109
108
96
95
109
106
95
95
109
106
93
94
109
105
94
92
110
107
95
96
111
108
98
98
115
112
100
103
117
120
109
109
126
124
114
116
132
135
122
122
139
141
129
128
145
146
135
133
149
148
136
137
154
150
140
139
153
155
140
140
156
154
141
141
154
155
142
138
156
155
141
140
155
153
139
139
152
151
138
135
150
152
139
134
149
147
134
133
147
148
133
131
144
145
130
128
141
141
128
124
139
139
122
122
136
135
123
119
134
133
119
119
131
131
118
114
129
128
114
113
126
126
113
109
123
126
110
108
122
122
107
105
119
122
107
104
119
121
106
106
119
122
108
103
119
121
108
106
119
122
109
106
121
126
110
109
124
126
115
110
127
129
117
112
129
131
117
114
128
133
121
114
131
135
122
117
134
135
124
119
134
138
123
119
133
137
124
119
134
136
125
120
134
139
124
121
134
137
124
118
132
136
123
118
134
135
123
120
131
135
123
117
130
134
123
116
129
135
118
116
129
132
119
114
126
132
118
112
127
130
117
111
123
130
114
111
123
127
115
108
122
125
113
109
119
126
113
108
119
124
111
106
119
122
112
104
116
123
108
104
116
122
108
101
117
120
107
102
114
120
108
101
114
120
107
103
112
120
108
100
113
116
108
97
113
118
106
99
112
119
106
101
112
118
108
100
112
120
108
98
112
118
110
100
113
119
108
99
113
119
108
100
111
120
107
102
112
120
108
101
113
121
111
101
115
120
111
100
112
122
109
100
112
120
108
100
113
120
108
99
113
120
109
101
112
120
108
101
112
119
109
100
112
121
107
101
108
121
108
100
110
120
108
98
109
120
107
99
109
118
107
98
111
120
107
99
109
119
105
98
108
117
108
99
107
118
107
96
110
120
108
99
110
120
110
100
116
127
117
108
122
132
125
114
129
137
128
122
131
146
134
127
136
148
138
130
141
152
142
134
145
152
146
134
145
156
144
136
144
157
148
138
148
158
145
137
145
157
147
135
144
155
144
135
144
155
145
132
142
152
143
130
141
150
141
129
139
148
140
128
135
144
135
123
132
144
132
122
130
142
131
119
127
140
128
117
125
136
125
116
120
134
122
112
119
131
121
111
117
127
119
107
113
126
118
104
113
123
116
102
110
123
112
102
108
120
113
99
110
120
112
100
108
120
112
102
109
123
113
103
110
125
117
105
112
125
118
107
116
127
123
111
118
133
124
112
120
134
127
116
120
137
129
118
124
137
130
117
125
138
131
120
125
139
131
121
124
141
132
120
127
139
134
119
127
140
133
118
126
137
134
119
124
142
131
119
124
139
131
120
122
136
132
117
123
138
130
119
120
136
128
117
122
135
128
114
118
134
127
115
118
133
126
112
119
132
126
112
117
131
124
110
116
129
122
109
113
128
120
108
112
128
120
108
112
127
120
106
112
125
120
106
110
122
121
105
109
124
120
106
109
122
121
105
109
123
119
103
108
122
119
104
106
123
118
103
107
123
117
103
107
123
117
105
106
124
117
105
106
124
119
106
109
123
120
106
109
122
119
106
108
122
120
106
108
125
120
107
109
124
120
107
108
124
121
106
108
123
120
106
108
126
119
108
107
123
120
107
107
124
120
107
108
125
121
107
107
123
121
106
107
124
120
108
108
125
122
107
108
124
121
107
107
124
120
107
106
122
119
106
106
121
121
105
107
122
123
107
107
122
122
107
108
123
124
110
112
127
129
115
116
135
133
121
122
138
139
125
129
143
144
131
131
147
150
136
137
151
153
138
138
154
155
140
141
156
157
143
140
157
156
144
141
156
158
142
141
156
154
141
140
158
154
140
139
155
154
140
139
153
152
139
136
152
153
138
133
149
150
135
132
145
146
132
129
145
145
128
127
143
142
128
124
140
138
125
122
137
139
123
120
134
134
120
117
131
134
117
112
130
129
117
112
127
129
115
109
125
126
111
107
123
122
110
104
122
122
110
104
120
123
108
106
120
124
110
106
121
125
112
107
124
126
113
108
126
129
116
111
127
131
118
113
130
135
119
118
132
137
122
118
134
138
125
120
136
140
125
123
139
142
128
123
139
143
129
124
137
144
130
124
138
141
131
122
138
143
131
125
138
144
129
124
137
142
129
120
139
142
129
122
136
142
127
122
134
141
127
120
135
141
125
121
134
139
124
120
131
139
124
119
132
137
122
116
130
136
123
116
128
135
120
115
127
135
119
113
127
133
119
114
127
132
120
112
124
130
119
110
124
130
117
108
124
130
114
111
122
130
114
108
121
129
113
107
121
128
115
108
121
128
113
106
120
128
114
107
120
130
114
107
120
130
114
106
119
127
115
106
121
129
115
107
120
129
115
106
120
127
116
106
120
129
116
107
118
129
115
106
118
127
116
106
119
128
115
108
120
128
118
107
119
131
115
108
117
129
116
107
119
128
116
106
119
126
116
107
119
127
116
106
119
128
117
107
119
128
116
106
117
129
116
106
119
129
117
108
120
131
118
109
120
132
122
113
125
137
127
116
131
142
131
123
135
148
137
128
139
152
142
132
142
156
144
136
145
157
150
137
150
160
151
138
149
163
150
140
152
162
152
140
150
163
152
139
150
160
150
139
150
161
149
138
147
158
149
136
148
157
147
134
145
157
144
135
142
155
143
132
141
151
142
130
139
149
140
129
136
149
136
125
134
145
134
124
131
142
132
120
132
142
131
118
128
138
130
117
124
138
127
114
122
136
123
114
120
133
123
113
118
132
122
109
118
129
122
108
116
131
121
107
116
130
121
110
117
131
123
111
118
132
124
111
122
135
124
114
121
135
129
117
124
139
131
119
126
141
133
120
128
142
134
122
129
143
136
124
131
145
136
124
131
147
137
126
131
146
139
124
134
146
139
126
132
149
139
126
132
147
137
126
131
146
137
126
130
145
138
125
129
145
137
121
130
144
135
123
128
143
134
122
127
142
134
121
127
141
134
120
124
141
133
119
126
139
132
119
122
137
130
116
121
137
131
116
122
136
130
117
118
135
129
115
119
133
129
116
117
134
126
113
117
134
127
113
115
133
125
113
114
131
126
110
116
130
126
111
115
131
125
111
113
130
123
110
113
130
124
111
112
128
126
110
114
129
125
113
113
128
125
109
112
128
127
111
114
129
126
111
114
130
126
112
114
129
128
113
113
131
127
113
113
130
126
111
115
132
127
111
115
129
127
113
114
131
126
113
114
130
126
113
115
130
128
113
115
131
127
113
113
130
126
115
112
130
126
113
113
129
126
113
113
131
127
112
113
128
126
112
115
130
127
113
112
131
129
115
117
133
132
118
118
135
135
121
125
139
141
127
129
146
146
134
133
151
150
137
139
155
155
140
143
158
158
143
143
159
161
146
143
162
162
146
146
163
162
149
146
162
162
148
146
161
161
148
145
161
161
147
143
160
160
144
143
159
157
143
141
155
158
142
140
154
155
141
136
153
154
137
136
152
151
137
135
148
150
135
133
147
148
132
130
145
146
133
128
142
144
131
127
142
142
129
125
139
141
128
122
138
139
125
122
136
139
124
119
137
138
124
120
135
136
123
117
133
135
122
118
134
136
122
118
134
136
123
118
137
137
123
119
137
139
125
121
139
140
127
122
138
144
128
125
140
142
131
126
140
145
131
127
142
146
134
127
144
150
136
129
144
147
134
130
146
148
135
131
142
150
137
130
145
149
136
130
142
150
133
129
144
149
135
129
145
147
134
127
142
149
133
127
142
147
131
127
140
145
132
126
139
145
131
123
139
143
130
123
137
143
129
123
136
142
129
122
136
140
128
121
135
139
127
120
133
141
124
121
133
139
126
118
132
137
125
117
131
136
123
116
130
136
124
116
131
135
122
115
128
135
122
115
129
136
122
115
126
135
121
112
126
134
122
115
125
134
121
114
127
132
121
114
125
134
121
114
126
136
121
113
126
132
122
113
125
134
122
112
127
133
120
114
125
136
121
112
125
136
120
113
125
135
122
113
126
135
121
113
126
134
121
112
126
134
122
112
127
132
123
111
124
134
122
112
126
133
121
111
125
134
121
111
121
135
121
112
122
132
121
111
122
131
121
110
124
131
121
112
122
131
121
112
121
135
120
113
122
134
124
112
124
134
127
114
128
141
129
120
132
145
135
124
137
148
138
131
141
151
143
132
145
157
146
137
147
159
149
138
150
160
149
142
149
162
151
142
152
163
153
144
153
161
154
144
152
162
150
142
149
164
153
143
149
162
152
139
148
162
149
141
148
159
151
138
147
159
147
138
145
157
149
136
144
154
145
133
141
154
144
132
142
153
141
132
139
152
142
129
136
150
138
130
136
146
140
128
134
149
138
125
135
145
136
124
130
145
136
123
129
143
134
122
130
142
134
122
128
142
134
121
131
141
133
122
128
143
134
123
130
144
136
123
131
144
137
124
131
145
137
127
133
148
140
127
134
149
142
129
135
149
141
130
137
153
143
130
139
151
144
132
138
152
145
133
139
153
146
133
139
151
147
131
138
153
144
132
137
153
145
131
138
150
145
133
135
153
143
134
137
148
146
130
137
150
142
132
136
147
142
133
135
148
141
129
132
148
143
128
131
147
141
126
132
145
140
126
131
146
139
125
130
143
138
124
126
143
138
123
127
143
137
124
126
141
137
120
125
139
133
122
125
138
136
121
124
138
134
120
124
137
134
119
122
137
133
119
121
138
132
117
122
136
132
116
121
137
133
118
122
135
132
118
119
138
131
119
121
134
133
117
120
135
131
118
119
136
131
119
121
134
131
116
118
134
131
119
119
136
132
116
119
134
131
118
119
133
132
115
119
133
131
116
116
134
131
118
117
132
131
115
117
131
130
115
115
131
129
116
117
131
130
114
113
131
129
116
118
129
128
115
114
131
129
115
114
129
126
114
114
129
128
112
113
129
127
114
115
130
128
115
116
131
129
119
117
134
136
120
122
138
136
126
127
140
144
129
129
146
147
133
134
151
150
137
137
152
154
141
138
155
156
141
141
156
157
143
144
159
159
146
145
161
162
147
145
161
162
147
148
160
161
149
146
160
160
147
146
161
163
147
145
160
162
148
145
159
161
147
143
158
160
146
142
157
157
145
141
156
156
141
140
155
155
141
139
152
153
140
137
151
153
138
134
148
150
138
134
147
149
134
131
147
147
135
129
143
147
132
129
143
145
132
128
141
145
130
127
141
142
130
125
141
142
131
125
141
143
132
127
141
146
132
127
143
146
133
128
141
147
133
130
144
148
136
130
144
149
135
130
146
151
137
131
147
150
139
134
146
151
140
134
147
152
140
134
147
153
140
135
148
153
141
133
150
153
141
133
148
153
138
134
147
155
139
134
146
152
138
132
147
153
138
131
144
151
137
130
143
149
137
128
142
147
136
128
141
147
136
127
141
147
132
127
140
145
130
127
138
144
131
123
137
143
130
124
136
142
130
120
134
142
127
123
132
133
123
120
134
138
126
118
131
139
124
117
131
138
125
115
130
130
119
117
130
134
124
117
127
135
122
115
126
134
122
115
128
128
117
112
127
135
121
116
125
133
120
112
125
131
123
114
124
135
120
112
125
133
121
112
123
132
120
112
124
132
123
113
122
130
122
112
123
132
121
111
123
134
118
110
123
131
120
112
122
131
120
110
120
132
119
108
121
129
119
110
120
130
119
108
121
128
119
109
119
129
117
108
120
128
117
108
116
127
117
105
117
127
116
106
118
127
115
106
114
125
113
104
115
126
114
106
113
125
115
103
116
124
116
107
114
125
116
106
118
129
119
111
120
134
125
114
125
136
129
121
127
143
131
122
132
146
135
127
135
145
138
128
139
150
142
133
142
153
144
135
143
154
147
137
145
157
147
136
146
159
148
137
147
159
151
138
147
160
150
140
148
161
149
139
148
159
149
139
146
158
150
139
144
156
148
135
144
156
145
134
142
153
147
134
139
152
143
131
139
151
143
130
139
150
139
128
136
147
141
129
133
146
137
125
133
145
136
124
132
144
133
124
129
144
132
123
128
141
134
122
130
141
133
120
130
142
131
122
127
142
135
123
130
144
136
123
130
145
136
125
130
145
138
126
133
146
139
127
133
147
139
130
134
146
143
130
136
149
143
130
133
150
144
132
136
151
144
129
136
150
145
132
136
150
146
132
138
152
145
133
136
150
145
131
136
148
144
131
136
149
144
130
135
151
143
131
135
147
140
129
135
148
140
128
132
147
139
129
130
145
140
127
130
143
138
125
129
141
137
124
127
140
134
124
126
139
136
122
125
138
132
117
125
138
132
120
122
136
131
118
121
134
131
119
120
135
128
115
119
132
128
116
117
131
128
116
114
131
128
115
117
132
127
113
113
130
127
115
114
130
126
113
115
131
126
114
115
128
126
113
115
129
127
114
113
130
126
111
114
130
125
111
112
127
126
111
112
129
124
112
111
123
127
111
113
124
124
111
110
126
124
109
111
124
122
111
109
124
122
109
108
122
123
107
109
122
121
107
107
121
122
108
105
122
119
105
108
122
118
106
105
120
119
104
106
120
117
106
105
118
120
106
104
120
120
106
107
121
121
109
108
124
121
111
112
126
128
114
115
131
130
118
118
132
132
123
122
138
139
128
126
142
143
131
131
148
145
135
133
148
150
137
137
151
152
139
140
154
153
141
140
155
155
142
141
156
155
143
140
154
157
143
141
154
154
144
138
152
153
140
138
151
151
139
137
150
150
136
134
147
147
134
131
145
148
133
131
144
142
130
126
140
143
129
124
138
140
128
121
136
137
127
120
134
136
123
120
134
133
121
118
130
132
118
114
127
132
120
113
128
130
117
111
125
128
115
111
127
128
116
110
124
130
114
112
124
128
116
111
126
130
116
114
127
128
117
114
126
134
120
114
128
133
121
115
129
134
121
117
128
135
122
116
130
135
124
118
131
136
123
120
134
137
125
120
133
139
128
120
133
141
127
120
133
138
126
121
134
139
126
121
133
137
126
120
133
138
125
117
130
137
124
116
130
133
122
116
127
133
121
116
127
133
120
113
125
130
117
111
122
131
117
108
122
126
115
106
118
125
111
104
116
122
112
103
114
119
108
100
112
118
104
98
110
116
103
98
107
113
101
94
106
112
100
91
104
111
99
90
101
108
96
87
98
106
94
86
97
107
94
86
97
102
93
83
96
104
91
85
94
104
92
83
95
102
91
83
92
103
89
84
93
103
93
81
93
102
91
83
93
104
93
82
93
102
91
84
94
103
92
83
93
102
92
84
94
104
94
83
95
103
91
85
94
105
92
85
94
105
93
85
94
104
94
86
94
105
94
87
94
107
95
86
96
105
96
85
98
108
96
88
97
107
97
86
98
107
99
88
98
109
99
91
101
114
103
94
106
115
107
98
107
119
112
100
111
123
114
105
116
129
119
110
121
129
123
113
122
134
126
116
127
138
129
118
127
140
132
121
131
141
134
122
129
143
134
124
131
143
134
124
130
142
136
123
132
143
135
124
130
143
133
121
131
138
131
122
129
139
131
119
129
137
129
118
125
136
130
116
123
135
128
112
121
133
125
112
120
130
120
111
118
129
121
110
115
129
118
106
116
125
116
106
112
125
115
104
111
122
116
104
109
122
115
101
107
123
115
101
110
121
113
102
108
121
116
102
110
122
115
102
111
122
117
105
110
124
117
104
113
124
119
107
113
126
120
109
113
127
122
110
115
130
124
110
117
130
122
112
118
130
124
114
116
130
127
112
119
132
126
114
119
132
126
114
119
130
125
113
117
131
124
112
117
131
123
114
116
129
124
113
116
128
121
112
115
128
122
108
115
126
120
107
112
125
120
107
111
123
119
107
109
124
116
104
108
121
118
104
106
121
116
104
106
119
114
103
106
117
114
102
105
117
112
101
102
118
114
100
102
116
114
98
100
117
113
100
97
117
112
99
100
114
113
97
98
113
110
98
98
113
110
99
100
113
109
98
100
112
110
98
99
112
109
98
97
113
109
94
98
114
108
98
97
111
110
96
97
112
109
96
97
110
108
96
95
111
109
94
96
109
108
95
96
111
109
93
95
108
107
94
94
108
107
92
94
108
106
93
93
109
107
93
94
106
107
92
92
107
105
90
93
107
105
92
93
107
107
94
94
109
108
97
98
111
113
99
99
115
117
103
104
119
121
109
110
123
124
112
110
128
129
116
116
132
133
121
123
136
138
125
125
138
140
129
126
141
142
132
130
144
146
131
131
146
148
133
132
147
148
134
132
146
147
134
134
147
146
134
132
146
145
133
130
145
148
132
129
142
144
131
127
142
143
128
125
140
140
128
125
137
139
127
122
135
135
125
120
132
134
121
118
130
133
118
114
129
130
116
113
127
128
115
111
125
125
113
110
122
124
112
106
121
126
110
106
119
122
112
107
119
123
110
106
120
122
112
107
120
125
111
108
123
125
112
110
122
126
116
111
123
129
114
113
126
129
117
114
126
131
119
115
128
132
121
117
130
134
122
116
132
137
123
116
133
137
122
116
132
137
125
117
131
138
123
118
132
136
126
120
130
136
122
117
130
134
124
119
129
134
122
115
128
134
120
116
127
133
120
113
127
134
119
113
127
131
118
112
124
131
117
110
125
130
116
109
123
130
115
108
122
128
113
107
121
126
113
106
120
126
112
106
118
126
111
105
118
124
111
104
116
123
111
105
115
123
109
104
115
122
109
101
116
122
109
102
114
122
109
101
113
122
109
100
111
121
109
102
112
121
109
99
113
121
108
100
113
119
110
101
111
120
108
100
111
122
109
101
111
121
109
99
112
120
108
101
111
120
107
99
109
120
109
100
111
120
108
99
110
118
108
98
111
120
108
101
112
120
109
101
113
122
111
103
114
123
113
106
116
126
118
108
118
130
120
111
124
134
126
115
126
137
128
119
130
139
132
123
133
143
135
125
134
144
137
128
139
149
138
130
140
152
141
131
140
152
143
132
142
153
142
131
141
152
144
133
140
152
140
131
140
151
142
131
140
152
141
131
136
150
138
128
137
147
138
126
137
146
136
127
132
144
134
125
132
143
133
120
132
140
130
121
128
138
130
119
127
136
127
115
125
136
127
115
121
133
123
112
121
132
122
112
117
130
120
109
118
129
120
108
118
129
120
110
117
129
121
110
117
130
121
112
119
129
123
112
119
132
125
115
118
132
125
116
121
134
127
116
123
136
126
115
124
138
128
118
125
139
128
118
123
138
130
119
125
138
130
117
125
137
130
118
124
138
131
120
124
137
130
116
123
137
129
118
122
136
129
118
120
133
128
116
120
135
127
113
119
134
127
113
120
132
124
112
116
131
125
112
115
129
124
109
113
129
123
109
114
127
123
110
111
126
120
107
113
126
118
105
111
125
116
105
111
124
120
106
110
121
116
104
109
123
115
103
107
121
117
102
106
119
118
103
105
121
115
103
107
120
115
102
105
120
114
102
106
119
115
102
104
118
116
101
105
121
115
101
106
121
114
99
106
119
115
102
106
120
114
100
107
120
116
103
105
118
115
101
104
119
114
102
106
119
117
102
104
118
117
102
104
119
115
102
104
120
115
102
104
118
116
105
103
120
119
106
108
123
121
107
110
126
124
112
114
130
129
115
119
134
132
118
123
138
135
123
125
139
139
128
130
143
142
131
132
146
145
133
134
147
146
134
136
152
150
136
135
151
150
137
137
152
150
136
138
154
151
137
137
153
150
139
138
152
150
136
137
150
151
137
135
149
148
133
134
148
147
134
132
148
145
131
130
144
144
130
130
144
141
129
127
142
143
128
127
142
140
128
126
139
140
126
119
137
137
124
122
137
137
124
123
136
133
122
121
137
135
122
112
131
135
122
120
134
133
121
120
135
134
122
119
133
139
123
112
132
135
123
121
133
139
125
121
136
137
126
123
138
140
126
123
138
141
128
124
139
142
127
125
141
141
129
125
141
141
129
125
140
142
129
124
141
143
131
123
140
143
129
125
139
142
130
125
138
141
129
123
137
140
128
122
136
141
127
121
135
140
127
121
135
139
125
118
134
137
125
119
131
136
124
119
132
134
122
118
132
135
120
115
131
134
122
116
126
133
120
115
128
132
118
116
128
129
118
114
127
130
117
112
127
131
117
113
126
129
117
112
123
131
117
112
126
130
116
112
126
131
118
110
125
132
118
112
123
130
117
112
124
130
115
112
124
130
118
111
123
131
118
111
121
131
117
111
125
129
116
113
124
131
116
111
125
129
117
111
124
130
119
110
123
131
119
111
122
130
119
111
124
130
116
111
122
130
116
110
123
130
117
110
123
130
115
112
123
129
116
111
122
130
119
110
124
131
119
112
124
133
123
114
128
136
124
119
130
140
128
122
134
143
132
124
136
147
134
128
142
148
140
129
143
151
141
134
144
156
144
137
148
156
144
137
147
159
147
138
150
158
147
140
150
158
145
138
147
159
148
139
147
158
146
135
147
157
146
135
144
155
144
135
145
155
142
132
141
151
141
131
142
150
138
129
141
149
137
128
136
147
134
127
136
145
135
125
135
144
132
122
133
144
132
121
132
140
130
120
131
140
130
118
127
139
128
118
127
135
128
117
126
135
125
116
125
136
125
114
125
136
124
114
125
135
125
115
125
135
126
116
125
135
126
117
126
136
126
115
126
138
128
117
125
138
129
117
127
138
130
119
128
137
128
119
127
138
130
119
127
139
130
119
129
140
129
118
127
138
130
121
127
137
128
119
125
138
129
117
126
136
128
119
126
136
128
114
123
136
128
114
121
135
126
114
120
134
126
115
120
131
123
112
117
132
124
111
115
130
122
108
116
130
121
108
116
126
119
108
114
125
116
109
112
125
115
107
113
125
116
105
112
126
117
103
110
125
117
105
110
125
117
104
110
121
115
104
108
123
116
104
108
121
115
102
108
122
116
103
107
121
115
102
109
123
114
101
108
121
115
103
108
121
115
103
109
123
115
102
107
122
115
100
107
122
117
101
107
121
115
103
108
120
114
101
108
121
115
103
106
119
114
105
108
119
115
103
105
121
115
103
107
120
116
102
105
121
116
102
106
120
114
101
106
121
115
101
105
119
116
101
105
121
117
101
105
120
115
103
105
120
115
106
108
122
119
107
110
126
122
108
113
130
128
114
117
131
129
118
121
137
134
118
122
140
134
124
127
141
138
124
129
142
141
128
129
145
141
130
132
146
142
130
131
146
142
129
131
146
143
131
131
146
143
129
130
145
141
128
130
145
143
128
128
144
140
126
127
143
140
126
128
141
139
126
125
139
136
123
125
140
137
123
123
137
135
121
121
137
135
123
120
136
133
120
119
136
133
121
119
134
133
117
118
131
129
117
117
131
130
118
116
132
131
117
116
131
130
117
116
131
128
116
115
131
130
117
118
132
132
116
116
133
131
119
118
135
134
120
119
134
135
120
118
134
135
123
121
134
134
121
120
135
137
124
122
137
137
124
123
136
138
123
122
136
138
123
122
138
138
125
122
136
137
123
122
138
137
124
123
135
136
123
122
135
135
123
120
134
137
121
119
134
135
121
118
133
134
120
118
133
135
121
117
130
134
120
116
128
132
119
116
130
131
118
114
129
131
119
114
127
127
116
114
126
129
115
112
126
128
116
111
124
128
113
109
124
126
116
111
123
127
113
108
124
126
113
108
124
127
112
108
122
126
111
108
120
124
112
107
121
126
110
105
121
125
111
107
120
125
112
107
121
125
110
106
120
125
112
106
119
125
113
106
119
124
113
106
120
125
112
105
120
126
112
106
119
124
112
107
119
125
112
106
119
123
111
105
119
124
111
105
118
125
109
104
119
124
110
106
117
124
110
105
116
123
109
104
117
122
111
103
118
123
110
101
118
123
111
106
115
122
110
103
118
124
111
105
116
123
113
107
119
126
114
108
124
130
116
112
126
133
122
117
129
137
126
119
132
141
132
123
138
145
135
127
139
149
136
129
142
150
139
133
145
153
141
133
146
152
141
134
147
156
145
135
148
153
143
135
147
154
144
135
146
154
142
133
144
152
141
131
145
152
141
131
144
151
140
131
140
151
137
128
140
149
139
128
139
148
135
127
137
146
134
126
134
144
132
124
133
143
133
123
133
141
131
122
132
141
131
120
132
141
130
121
131
140
127
119
129
137
128
118
129
141
128
117
128
138
127
116
128
138
127
118
127
138
128
118
129
139
131
121
129
140
130
120
129
141
130
119
131
140
132
122
132
142
133
123
133
142
133
123
131
143
132
122
131
143
132
124
132
142
135
123
133
143
133
124
131
143
133
121
131
141
133
124
131
141
132
121
130
140
132
120
127
140
130
119
128
140
131
118
127
140
129
120
127
138
128
116
126
135
127
117
124
136
127
116
122
134
125
115
124
133
126
113
120
132
125
113
121
134
122
111
121
131
123
111
118
131
122
111
117
129
121
110
117
129
122
111
115
128
121
107
117
129
120
107
116
129
118
108
115
126
119
107
114
128
120
106
114
127
119
106
114
126
118
108
114
126
117
106
113
127
118
106
113
126
119
107
112
127
117
108
112
126
117
106
115
125
118
106
114
125
118
106
111
125
120
108
111
124
117
107
110
124
119
108
110
124
120
106
110
124
119
106
110
122
118
105
111
125
118
105
109
125
117
105
110
123
119
105
109
123
116
104
110
123
118
104
108
122
115
103
108
123
116
102
107
120
116
103
106
120
116
102
107
120
115
102
107
122
116
105
106
120
114
103
105
120
117
102
108
121
120
106
109
126
122
110
115
130
126
115
119
134
131
120
124
141
138
126
131
148
145
136
139
155
152
138
145
160
157
144
147
164
159
150
151
168
166
153
156
171
167
157
160
174
170
159
161
175
173
161
163
177
174
163
163
179
173
162
162
175
174
161
162
176
174
161
162
177
173
162
160
175
172
159
159
173
172
158
159
173
171
156
159
173
170
157
156
171
168
156
155
171
167
154
154
169
167
152
154
166
165
156
154
169
166
153
156
168
166
154
153
167
164
153
153
167
167
154
154
168
167
154
153
168
165
156
155
168
168
156
156
171
170
158
158
172
171
159
158
173
171
159
158
174
171
159
158
171
172
161
159
175
171
159
158
172
172
161
158
174
174
161
160
173
172
160
157
171
172
159
158
171
170
159
158
167
171
158
155
169
168
155
152
167
169
152
152
163
167
152
149
164
164
150
146
159
159
148
143
155
155
144
139
155
155
140
137
151
151
138
134
150
149
136
133
145
147
134
131
144
144
130
127
139
142
128
125
137
139
125
122
135
137
122
119
133
137
120
118
128
132
119
115
128
130
117
113
124
129
114
110
125
128
115
110
124
125
114
110
122
127
114
111
123
126
114
108
124
127
114
110
122
127
113
110
122
127
116
109
123
126
114
110
122
128
113
110
121
127
112
108
121
126
112
106
119
125
111
107
119
123
109
104
116
122
108
105
117
120
108
101
114
118
105
99
111
117
106
98
110
114
101
96
107
112
99
95
105
110
98
91
103
109
97
89
101
106
94
86
99
105
92
87
98
103
89
81
94
101
90
81
92
101
87
80
91
98
86
78
90
96
83
80
92
98
85
79
90
97
85
78
90
98
88
80
93
102
90
87
100
107
97
91
105
114
104
97
110
121
112
106
117
127
117
110
124
133
121
115
129
136
126
120
134
142
132
124
136
144
133
127
138
146
136
126
138
147
136
129
140
148
136
130
139
146
137
127
136
145
135
128
137
146
134
126
137
143
132
124
133
142
131
121
131
140
128
119
127
138
126
118
126
133
123
114
124
132
124
114
123
131
120
111
119
129
117
110
118
130
118
110
118
126
119
107
115
125
115
106
115
126
116
105
113
123
113
104
115
123
113
102
115
126
115
105
114
126
117
104
114
127
117
108
116
128
118
107
117
129
119
110
119
130
121
112
120
131
121
110
120
133
123
112
119
134
124
114
121
132
123
115
122
133
122
114
121
133
124
113
120
133
125
113
120
131
123
113
122
131
121
113
119
130
120
112
118
131
123
110
118
129
121
108
115
127
119
108
113
125
119
108
115
126
116
107
112
124
117
104
110
123
115
103
110
121
113
102
108
119
110
101
108
119
110
99
105
117
110
98
103
116
109
97
103
113
106
96
104
114
106
94
100
114
106
94
99
114
106
92
98
113
105
92
93
104
103
92
97
110
103
92
97
109
103
90
96
109
104
90
92
102
103
90
95
108
103
91
96
108
102
92
96
109
103
92
94
105
105
92
97
110
106
94
97
111
104
94
99
111
106
94
99
112
107
93
98
110
107
94
99
110
106
95
99
109
106
92
98
112
107
94
97
110
104
94
97
109
105
93
97
110
105
92
98
111
105
91
96
108
104
92
96
110
106
91
94
110
107
92
95
110
107
91
96
110
107
95
98
111
109
96
100
117
114
101
104
120
117
105
107
124
122
110
112
128
125
113
117
132
130
117
121
133
131
119
122
139
136
124
125
139
136
124
126
141
138
126
127
143
139
128
128
143
139
125
127
143
139
129
128
144
138
127
128
140
139
125
126
138
137
123
126
137
137
121
123
138
134
123
124
138
133
122
122
137
132
119
119
134
132
119
117
132
131
117
117
128
129
114
113
129
127
115
115
130
127
112
110
127
125
111
110
122
120
109
107
124
122
110
107
121
121
107
105
120
120
107
107
120
118
104
106
118
121
107
106
120
120
108
108
122
122
108
109
124
124
113
109
128
126
113
113
128
129
116
113
128
129
116
113
128
129
116
115
129
131
116
114
130
131
120
116
131
133
119
117
128
131
119
116
130
130
118
116
131
132
119
116
128
130
118
114
129
131
117
115
127
130
116
113
125
129
116
112
125
128
114
111
125
127
114
111
124
127
112
108
124
127
112
108
122
125
111
107
121
124
111
106
121
123
110
105
119
123
109
107
118
123
109
105
118
122
108
104
117
123
108
103
116
120
107
101
115
120
108
103
115
118
106
100
114
117
105
101
113
116
104
99
113
118
103
98
111
115
104
99
111
114
103
98
110
115
100
94
110
115
103
98
111
116
102
96
109
115
103
96
110
116
102
97
111
115
103
97
112
116
104
98
109
115
106
98
110
118
104
98
111
116
107
101
112
118
106
98
111
118
106
99
112
118
105
99
112
118
105
98
111
118
106
101
111
118
107
99
113
119
106
101
113
120
111
104
117
124
113
107
119
127
118
112
125
132
121
115
129
136
126
120
131
140
127
124
135
142
134
126
136
146
135
128
140
148
139
131
144
152
140
133
144
153
141
134
144
152
141
133
145
153
143
135
146
154
142
134
145
152
143
134
144
152
142
134
142
151
138
132
142
149
138
130
141
149
138
129
137
147
136
128
138
145
135
125
133
142
133
124
133
142
130
120
130
139
129
118
127
136
125
116
126
134
125
115
123
132
122
112
121
130
121
110
119
129
119
109
120
128
118
109
116
127
118
108
119
128
120
109
119
129
120
111
120
132
122
112
119
133
124
114
124
135
125
116
126
139
128
117
129
140
132
120
129
140
131
121
130
140
133
121
130
140
133
122
129
140
132
121
131
141
134
124
129
141
132
122
129
141
133
121
129
141
131
120
126
138
130
119
127
137
129
117
125
136
129
115
126
136
128
116
123
135
126
115
122
133
125
113
119
132
124
112
119
131
124
112
118
129
122
112
118
128
121
109
117
126
121
110
117
128
121
108
113
126
120
109
115
127
118
107
114
124
118
106
114
125
118
107
111
123
118
104
111
123
118
106
109
124
115
103
109
121
115
104
109
123
115
102
109
121
115
104
108
120
114
103
107
118
115
103
109
121
116
103
108
120
114
103
108
121
117
104
109
120
113
102
108
120
114
105
106
119
114
102
107
119
116
104
108
121
114
102
105
120
115
103
107
120
116
103
107
120
116
105
109
123
117
106
109
123
119
108
114
127
122
111
118
131
128
118
122
136
130
121
126
139
136
125
129
142
140
129
133
145
144
133
136
148
146
132
135
149
147
136
139
150
148
135
136
150
146
136
136
151
147
134
135
148
144
133
134
147
145
132
133
148
144
131
133
146
143
130
131
143
139
127
130
142
138
125
126
139
138
124
123
135
135
122
123
136
132
120
120
133
132
116
117
130
128
116
116
129
126
112
114
127
127
112
111
124
123
109
110
124
123
109
108
121
120
107
107
123
118
106
106
120
117
105
106
120
118
105
104
119
119
106
108
122
120
108
108
120
121
109
111
125
124
110
112
124
125
113
113
127
127
116
115
127
128
114
116
130
130
116
116
130
130
117
116
131
131
119
118
133
133
121
119
132
134
122
118
132
131
121
118
133
134
120
118
132
132
121
116
131
131
118
116
127
130
118
116
129
130
118
115
128
128
115
113
128
128
115
111
125
125
114
110
123
125
113
111
122
124
111
109
123
124
111
106
120
121
109
106
120
122
109
105
117
119
106
104
115
119
107
103
115
118
104
100
113
116
103
100
113
116
103
99
111
114
103
97
111
114
100
96
110
113
100
97
110
113
100
97
109
114
101
95
110
113
100
97
111
114
102
97
110
113
101
96
110
113
101
98
109
114
101
97
108
113
104
99
109
114
103
99
110
114
104
97
110
115
103
98
110
116
104
99
111
117
105
98
110
117
105
100
112
115
104
96
111
117
104
99
112
117
106
99
112
119
107
102
115
124
112
105
122
124
115
110
123
132
120
114
126
134
123
118
128
136
127
120
132
140
128
124
136
142
131
124
137
142
132
124
136
143
133
128
138
145
134
127
138
142
132
125
137
143
132
127
136
142
131
124
136
142
131
123
135
141
130
120
131
139
128
118
129
136
127
118
128
135
126
117
126
133
124
114
124
132
121
113
124
130
119
112
121
130
120
111
121
127
118
108
119
127
114
107
117
123
113
104
113
122
112
103
114
122
111
101
111
121
110
100
111
119
109
99
108
118
110
99
109
119
109
100
110
119
111
101
111
123
112
102
113
122
113
104
114
122
115
108
116
126
116
109
118
126
119
110
119
129
119
110
120
131
121
112
122
132
122
112
121
133
123
114
123
133
124
112
121
133
125
114
124
133
124
114
121
132
121
112
122
133
123
113
121
134
124
112
120
131
122
111
121
130
122
110
116
129
121
110
118
130
121
111
116
129
119
108
117
128
120
109
116
128
118
106
115
125
118
105
113
126
117
106
113
124
115
103
112
126
116
103
111
124
116
104
111
121
114
104
111
123
112
102
111
122
113
103
109
121
113
104
109
120
114
102
112
121
113
104
109
120
114
103
108
122
114
102
108
121
114
100
108
121
115
100
106
121
114
103
108
120
112
102
107
122
115
103
106
120
113
101
108
121
114
101
106
120
113
103
108
122
115
103
107
120
115
103
108
119
114
104
110
122
116
104
108
124
119
107
113
126
122
112
120
131
128
115
123
136
131
120
124
139
136
124
128
144
140
127
133
146
143
132
137
148
143
132
136
150
145
133
136
151
145
134
137
149
146
132
136
150
147
133
135
151
146
131
136
148
143
133
135
148
142
131
133
144
141
130
135
145
142
128
131
143
138
128
129
144
138
127
128
140
136
124
128
138
136
123
126
138
133
121
123
134
132
120
121
134
128
116
118
131
129
117
117
130
126
113
114
129
124
112
115
126
122
109
110
125
120
108
111
124
120
106
108
124
121
107
108
123
121
109
110
125
121
109
111
127
125
112
115
127
127
114
115
132
129
117
118
132
133
119
119
135
133
120
120
135
134
120
122
137
134
122
122
138
137
123
124
137
137
120
123
136
137
123
124
137
135
122
121
136
134
122
121
136
136
122
120
135
135
122
120
137
134
122
121
135
136
120
120
133
134
120
119
134
134
122
118
134
134
120
118
133
131
117
116
132
132
119
118
132
134
118
117
130
129
117
116
129
131
118
115
128
130
116
116
130
131
116
114
129
130
117
114
128
130
117
114
129
129
116
113
127
129
114
113
127
129
114
110
126
129
116
113
127
129
115
111
127
127
117
111
130
129
118
112
129
130
116
113
127
129
117
112
128
131
117
114
128
129
117
114
129
130
119
115
129
132
118
114
126
131
117
114
126
131
118
113
128
131
119
116
129
132
120
116
132
137
125
121
135
141
127
122
139
142
134
129
144
148
136
131
145
152
140
134
149
154
142
136
151
156
144
138
154
157
145
141
153
157
146
139
152
159
144
140
153
157
146
140
156
158
145
139
152
158
143
139
151
156
143
138
148
155
139
135
147
152
140
134
145
151
137
131
143
149
136
129
142
145
133
128
140
144
134
126
138
143
131
124
136
143
129
121
134
141
127
120
132
138
126
118
131
137
126
116
129
137
126
117
127
133
122
117
125
133
118
112
124
133
120
113
125
132
120
110
121
131
119
110
124
132
119
111
124
133
120
113
124
134
119
113
124
135
122
116
126
137
125
117
126
137
127
119
130
140
127
119
131
139
128
120
132
141
129
121
131
140
129
119
132
140
131
120
132
141
130
121
131
142
128
118
129
140
130
118
130
140
128
118
128
139
128
118
129
138
122
115
129
138
127
118
129
139
130
118
128
138
126
116
128
136
120
113
128
137
126
115
127
137
124
114
126
136
124
111
124
134
116
107
122
132
124
111
120
130
120
108
119
131
119
108
117
130
118
107
116
127
118
106
116
126
116
105
115
125
115
104
112
125
112
100
111
123
110
99
110
121
111
97
107
119
110
98
107
118
110
96
105
117
109
95
105
119
106
94
106
116
107
97
104
115
106
95
103
114
106
95
103
114
107
96
101
115
106
96
102
116
107
96
102
115
109
96
105
118
110
98
107
122
114
102
114
129
120
110
116
133
124
113
123
138
130
119
127
141
135
125
131
145
137
125
134
148
142
130
137
150
141
129
136
151
145
131
138
151
145
132
138
151
142
130
137
150
143
130
136
148
142
130
134
149
140
130
134
149
140
129
133
146
138
126
130
143
137
123
131
144
135
123
129
142
134
122
126
139
130
119
125
138
131
118
123
136
130
117
121
134
129
116
120
134
125
114
119
132
125
113
115
131
126
112
115
131
124
112
116
131
124
110
112
129
124
110
112
129
123
110
115
130
124
112
114
130
127
111
116
134
128
113
117
131
129
115
120
134
131
117
121
135
132
119
123
140
136
122
126
141
137
122
125
142
139
124
127
143
139
126
129
144
140
124
131
143
139
127
129
143
140
127
130
143
141
128
128
145
141
128
127
144
140
126
129
143
140
126
127
142
138
123
125
142
135
125
126
141
139
124
124
139
135
120
126
141
137
123
124
140
137
122
124
138
137
122
123
139
137
125
121
137
136
122
123
137
136
123
122
137
136
121
121
136
136
121
121
136
134
119
121
136
134
121
119
135
133
119
118
134
133
118
117
134
132
119
117
132
133
118
118
133
130
118
116
131
131
117
116
130
131
117
114
132
131
117
115
131
129
117
114
130
131
117
114
131
131
117
115
130
132
118
115
128
128
117
114
129
130
119
115
130
130
119
119
134
137
123
122
134
137
127
127
144
146
133
130
149
147
138
136
152
156
143
142
156
156
145
144
158
161
147
144
161
163
150
147
161
164
149
147
162
164
150
146
162
165
151
148
162
161
151
144
160
161
147
144
159
161
147
144
158
161
145
142
154
157
144
138
152
156
142
138
151
155
140
138
151
155
140
136
148
151
139
134
147
151
137
130
147
150
137
131
146
149
135
129
144
147
133
127
140
145
132
127
141
146
133
127
141
144
131
126
141
146
131
126
136
142
130
125
139
143
130
122
137
143
131
126
138
144
130
125
136
144
132
125
141
145
133
127
138
144
133
128
142
146
132
128
140
146
135
129
141
146
134
128
142
150
136
129
142
147
136
130
143
151
137
128
143
149
137
131
142
149
136
128
142
148
136
129
141
146
135
126
140
145
136
128
139
146
133
127
140
146
132
126
139
144
132
124
138
145
132
124
137
143
132
125
136
146
131
123
132
142
131
121
133
144
130
120
133
141
129
121
132
140
127
119
132
140
127
120
130
137
125
117
128
137
125
116
126
134
124
117
126
137
123
116
123
133
123
116
127
135
123
114
121
130
120
112
124
132
123
114
123
130
120
112
122
133
120
112
123
133
120
113
122
131
119
110
120
130
119
109
121
131
122
110
121
131
120
111
121
131
120
110
119
129
120
110
121
130
120
111
121
132
120
111
121
132
121
111
121
132
122
111
123
136
125
115
128
137
128
120
130
144
134
125
134
147
137
126
136
148
139
131
141
152
143
132
143
154
143
133
143
156
146
135
143
157
145
135
144
156
145
135
145
154
147
137
143
155
144
134
143
150
145
135
144
153
143
133
141
149
145
133
141
152
142
131
137
145
139
128
138
149
140
127
134
147
136
126
135
144
137
126
135
146
135
124
131
143
133
121
128
144
134
122
129
142
133
121
127
141
132
120
127
138
130
117
122
137
128
117
122
135
128
114
122
135
127
116
124
136
126
116
122
135
128
117
122
136
131
117
124
136
129
117
125
139
131
120
127
140
133
120
127
140
133
121
126
143
136
123
129
143
135
123
129
145
137
125
129
144
138
126
131
146
137
125
130
143
137
124
129
144
138
125
128
143
135
123
128
141
135
122
128
143
134
121
128
142
134
122
127
143
136
121
126
141
132
121
123
140
132
120
123
139
132
120
124
139
133
120
124
137
131
118
122
135
129
118
121
137
131
119
122
136
131
115
121
137
130
117
121
132
130
117
121
134
129
115
118
132
130
117
116
133
129
116
119
131
130
115
120
133
129
114
119
128
128
115
116
131
127
116
116
132
128
114
117
132
129
112
117
129
127
113
115
131
125
114
116
130
126
113
115
128
126
112
114
128
125
112
114
127
124
114
114
128
126
111
114
129
127
113
116
130
129
116
118
133
132
118
120
137
136
124
126
141
140
127
128
147
144
129
130
148
149
134
137
151
152
139
139
154
153
140
142
158
155
142
142
157
155
142
143
159
158
144
145
160
156
143
143
156
157
144
141
157
158
143
142
156
158
144
143
157
154
141
141
154
153
140
139
152
155
139
138
153
153
138
137
152
151
137
135
149
150
136
134
150
149
136
133
149
149
134
133
147
148
134
131
145
145
131
129
145
144
131
129
142
143
130
128
143
142
128
127
139
141
126
124
136
140
125
123
137
139
126
123
135
135
125
121
137
139
125
123
135
138
126
123
139
138
127
124
134
139
127
125
139
143
129
128
143
144
132
127
142
143
132
127
142
145
132
128
144
144
132
129
143
147
134
128
143
146
132
129
141
145
131
128
143
147
132
129
142
145
131
126
141
143
129
127
140
142
129
125
140
142
130
124
139
142
130
125
138
142
128
123
137
143
129
122
136
138
126
122
135
140
126
120
135
139
125
120
134
137
124
119
131
135
123
118
130
136
122
117
129
136
121
117
130
133
121
114
128
134
120
113
128
131
120
113
127
133
119
113
124
133
118
112
125
132
117
113
124
132
119
112
123
130
117
113
123
130
115
109
121
130
114
110
122
128
115
109
121
126
116
110
121
127
113
107
122
128
113
107
121
127
114
106
120
128
115
108
120
129
117
109
120
125
116
111
124
131
121
115
128
133
126
120
134
142
130
124
135
142
135
128
143
150
140
131
143
148
140
135
147
157
144
137
151
156
146
140
149
158
147
139
151
159
148
141
151
161
149
140
151
162
149
142
151
160
149
141
151
159
147
140
152
158
148
138
148
157
147
136
148
155
144
136
147
155
143
134
145
153
142
134
144
151
142
133
143
151
141
129
142
149
136
129
138
149
138
129
138
147
134
126
136
146
135
125
134
141
132
124
134
143
133
121
133
140
129
122
130
141
130
122
131
138
129
118
130
139
128
120
129
140
128
119
130
140
131
120
129
138
129
120
131
139
130
121
131
142
131
120
131
141
132
121
131
142
132
122
131
143
134
123
131
144
133
123
132
141
132
124
131
144
134
123
131
142
132
123
133
145
135
125
132
142
133
122
131
144
134
122
132
138
132
122
129
142
134
123
130
136
129
122
128
139
131
120
129
133
129
119
126
138
129
118
127
134
129
117
126
136
127
116
123
135
128
114
121
133
125
113
122
131
122
113
120
131
123
113
119
132
124
112
119
131
121
110
117
130
120
109
116
130
120
108
115
128
120
108
114
128
119
106
113
126
117
106
112
125
116
105
111
125
118
107
112
125
115
103
111
124
116
105
112
123
117
104
112
123
117
105
111
124
118
105
112
124
118
104
110
124
115
105
110
124
117
105
112
125
118
106
112
125
120
108
116
131
124
113
118
132
126
118
124
137
133
120
127
141
136
123
131
145
140
128
134
148
142
131
136
151
144
134
139
153
148
135
140
153
151
136
141
156
151
138
143
155
150
137
141
155
148
139
141
154
148
138
141
153
147
136
139
152
145
134
140
150
145
135
135
144
140
132
134
147
142
129
132
141
138
128
130
143
138
127
131
137
133
124
127
141
137
124
125
134
130
120
123
136
132
120
122
135
130
118
119
135
130
118
120
133
129
115
117
132
127
113
117
131
128
116
118
132
129
118
119
132
130
119
121
135
130
118
122
133
131
120
123
136
134
119
120
136
129
119
122
138
134
120
123
133
131
121
123
134
132
121
123
136
130
120
122
134
133
122
121
132
130
121
121
134
132
120
122
128
126
120
120
132
131
119
119
134
126
117
116
131
130
117
119
129
127
115
116
131
128
117
116
129
123
115
116
130
127
115
114
128
124
112
113
128
126
114
114
125
125
112
112
127
124
113
112
125
123
110
109
123
122
109
109
126
122
110
108
123
122
109
108
121
121
107
105
121
121
107
108
121
122
105
106
119
118
106
104
119
118
105
104
118
120
104
104
118
117
104
103
115
117
103
102
108
115
102
102
117
115
103
99
113
113
101
99
113
113
102
97
107
112
101
98
113
115
102
97
114
113
101
97
114
113
103
99
107
115
102
102
115
119
105
106
118
121
109
106
123
124
111
109
124
127
114
113
127
130
118
116
130
132
121
118
133
134
123
121
133
136
123
121
135
137
124
122
136
137
126
119
135
137
123
122
137
138
125
122
134
138
124
123
135
137
123
121
134
137
123
120
133
138
122
118
133
135
122
118
133
136
123
118
130
133
121
117
131
136
122
119
132
133
120
116
128
133
122
116
129
132
119
114
128
132
121
115
127
132
119
114
127
131
117
112
126
128
117
111
124
128
116
113
124
129
117
112
124
129
115
111
123
127
115
109
123
126
116
109
123
127
115
109
123
126
114
110
121
127
114
108
122
128
114
107
121
126
117
110
123
127
114
110
121
127
115
108
123
127
115
108
122
128
116
110
120
126
114
109
122
128
116
110
120
126
113
109
122
127
115
110
121
127
116
111
121
127
113
109
120
126
115
108
121
127
115
108
120
126
114
107
119
126
113
106
118
125
111
105
118
124
112
104
118
123
113
104
115
122
110
104
115
123
110
104
115
122
110
101
113
121
110
100
114
121
107
101
112
119
106
101
110
118
107
100
110
119
107
99
110
118
107
98
109
116
105
97
108
116
105
96
108
115
104
96
108
114
104
96
107
116
102
95
107
116
102
98
107
116
103
96
108
115
104
96
108
117
102
96
106
116
106
97
108
118
104
97
110
119
109
102
112
122
112
105
115
126
115
107
118
129
118
111
121
133
123
115
127
136
128
121
132
143
132
123
134
144
136
127
138
149
139
131
139
150
141
130
144
153
144
134
144
153
144
134
144
157
144
135
144
154
143
134
144
155
145
134
143
152
143
133
143
152
140
131
140
151
141
131
137
148
139
130
138
147
137
128
134
144
136
126
135
143
134
124
134
144
131
122
130
142
131
122
128
138
132
119
126
137
127
118
126
136
128
115
123
134
125
113
124
134
124
114
120
132
122
111
122
132
123
114
122
133
122
114
124
134
124
114
120
134
127
115
126
135
128
116
125
136
128
117
126
139
130
118
127
138
130
119
128
140
132
121
128
140
132
120
129
141
131
122
129
141
131
120
129
140
132
121
130
142
131
119
128
140
129
120
128
139
129
119
126
138
130
119
124
137
129
118
123
136
128
116
123
135
127
116
123
135
126
113
120
133
123
112
120
132
126
114
119
130
122
111
117
131
121
112
115
129
120
107
115
128
121
108
114
124
119
106
111
122
116
106
111
124
116
104
110
123
113
101
108
121
113
99
108
121
112
102
106
118
111
102
105
118
110
99
105
117
110
98
105
117
110
97
102
118
108
96
102
116
110
96
102
115
109
98
103
115
108
98
101
114
107
94
100
112
107
95
102
114
107
93
99
113
107
96
99
114
109
97
102
116
111
100
107
121
117
107
110
122
119
109
115
129
127
114
119
133
132
120
123
139
135
121
127
143
137
125
132
144
140
127
132
147
141
131
134
146
144
132
136
148
144
132
136
148
144
130
135
147
143
132
135
146
142
129
133
148
142
129
132
147
140
127
130
145
139
127
129
143
136
125
126
140
136
124
126
139
134
121
122
136
132
120
123
136
131
118
118
132
128
115
117
130
125
114
115
128
125
113
112
127
123
110
112
127
122
109
110
124
123
109
109
123
121
108
110
123
121
107
109
123
119
106
106
123
120
107
109
123
121
108
110
123
120
108
109
124
121
110
114
127
122
112
112
126
124
112
112
126
125
114
114
129
126
112
114
130
126
114
115
129
129
116
117
130
129
115
116
129
128
115
115
130
128
114
117
130
129
114
115
128
128
116
116
129
125
112
114
126
125
113
113
127
124
112
110
124
124
111
110
123
122
109
109
123
122
108
108
120
119
106
106
120
119
107
105
119
116
105
104
114
117
103
103
117
115
103
102
114
112
100
100
113
115
101
96
111
112
99
97
110
110
97
95
109
109
95
94
107
108
95
94
107
105
93
93
107
107
94
93
104
105
92
91
107
106
93
92
104
105
91
87
103
103
91
90
103
105
92
89
103
103
91
87
101
104
89
87
101
105
92
89
104
103
88
87
101
105
91
88
104
103
91
91
106
109
97
95
109
112
100
99
115
115
104
102
119
121
110
108
124
126
113
112
126
129
116
115
129
133
120
119
131
134
122
121
135
138
126
123
136
139
127
122
136
140
126
124
137
141
127
126
137
140
127
126
138
141
128
124
139
139
125
122
135
138
124
121
134
137
125
120
134
134
122
115
130
135
119
117
130
132
120
116
128
131
118
115
125
129
116
110
125
128
115
108
120
123
113
107
118
124
111
106
118
121
107
103
115
120
106
101
114
117
105
100
113
116
104
99
113
115
104
98
113
118
105
102
113
118
107
102
116
120
109
103
117
119
111
104
116
122
111
107
120
125
112
109
121
125
114
109
121
128
115
112
124
128
118
111
124
128
117
110
122
131
116
113
125
131
118
110
126
130
119
112
125
130
118
110
124
129
119
110
124
128
116
110
123
128
116
110
120
128
114
109
121
127
115
109
121
126
113
107
119
126
112
106
118
124
112
104
116
120
110
103
115
123
110
105
117
121
110
104
114
121
108
101
113
119
108
101
112
119
105
98
110
116
105
97
109
115
104
98
109
116
104
97
107
115
103
96
106
114
102
95
107
115
103
95
106
115
102
95
105
113
101
95
106
113
101
94
107
113
103
93
104
112
102
95
107
113
103
95
104
113
102
94
103
114
101
95
105
115
106
97
107
117
106
99
111
120
111
103
114
124
114
105
119
129
120
111
123
132
124
115
129
137
128
120
135
142
132
125
136
145
134
127
138
150
139
130
142
150
141
134
145
152
143
136
145
154
145
136
145
156
144
135
146
154
145
137
146
154
143
135
145
153
143
133
144
153
142
132
142
152
141
129
139
150
138
129
138
147
138
128
138
147
136
125
135
146
134
124
132
141
131
122
131
141
131
121
128
138
129
117
125
137
125
117
125
134
125
115
124
132
122
112
120
133
122
112
120
131
121
111
120
128
119
111
118
130
121
112
121
132
123
111
122
131
125
115
123
134
125
116
124
133
126
115
125
136
127
119
126
138
130
120
129
138
128
121
129
141
131
121
127
139
131
122
130
142
133
120
129
141
132
121
131
140
133
120
129
139
132
121
129
140
131
120
128
141
130
119
127
136
127
119
125
135
128
116
124
134
129
115
121
134
126
115
121
133
126
115
120
132
124
112
120
130
123
112
117
129
121
110
115
128
120
108
116
126
119
106
113
125
118
106
112
124
115
104
111
123
115
104
111
124
114
105
111
122
114
102
108
120
113
100
107
121
112
101
108
121
113
99
107
118
112
101
105
120
111
100
105
118
111
101
103
117
109
100
105
118
109
100
107
119
112
101
106
119
112
101
106
119
113
101
107
121
114
105
109
123
116
105
113
128
122
112
119
132
128
116
123
137
132
122
128
142
136
126
133
146
139
130
134
150
143
134
140
155
149
137
142
157
153
138
145
158
152
141
145
159
152
142
147
161
155
144
148
161
154
144
148
161
154
144
147
159
153
141
147
157
152
139
143
154
150
140
144
154
150
137
140
151
146
134
137
150
146
134
137
148
145
131
133
147
140
128
131
145
138
127
129
144
138
123
129
139
135
121
125
139
134
122
122
138
133
120
122
136
130
119
120
134
128
117
121
135
130
116
119
132
128
116
118
133
129
117
118
134
129
119
119
136
130
120
122
137
132
119
123
137
133
121
123
139
135
120
125
139
137
124
126
140
137
124
127
140
138
125
127
141
136
124
126
139
136
125
127
140
137
125
126
139
136
124
126
137
134
121
123
136
135
122
123
135
134
119
122
135
132
119
122
135
132
118
120
132
130
115
116
131
127
115
117
128
127
114
114
127
124
111
113
126
124
109
110
125
122
108
109
124
120
109
108
123
119
108
106
120
118
107
106
120
116
105
104
120
116
104
104
119
116
104
102
116
115
101
103
116
114
101
100
115
113
102
102
115
113
100
100
114
113
101
103
116
114
101
100
113
112
100
99
115
114
100
100
113
113
98
98
114
113
100
98
112
113
99
99
113
112
101
100
116
114
103
101
118
117
105
105
120
121
106
109
122
125
111
112
127
129
116
117
130
132
121
120
