200
192
173
183
204
198
178
186
207
201
183
191
208
206
185
193
207
207
187
193
208
208
187
191
206
205
186
190
208
203
180
187
207
201
180
184
207
198
176
182
199
193
170
176
200
190
168
171
194
184
164
166
190
183
159
161
186
178
154
160
182
174
153
156
178
170
146
151
173
166
142
144
171
162
140
144
165
158
137
141
163
156
133
138
163
154
132
135
160
153
130
133
157
153
130
134
155
151
130
133
155
150
130
133
156
151
129
132
157
154
129
132
158
152
130
134
157
154
132
134
160
154
132
134
161
156
133
135
159
157
131
135
159
156
134
135
159
155
132
135
158
155
132
133
158
153
132
132
155
150
128
129
153
151
127
126
149
146
124
123
147
145
123
123
145
142
119
118
142
140
117
115
138
136
115
113
135
134
110
108
135
130
109
107
130
127
107
105
125
126
105
102
124
123
100
99
124
121
98
95
120
118
96
94
118
115
92
90
115
113
91
90
114
111
90
88
111
109
88
84
109
108
87
82
108
106
83
80
104
104
81
79
103
101
82
77
103
102
79
75
98
98
78
75
99
99
76
72
96
97
75
72
94
95
73
70
94
95
73
70
93
95
73
68
93
95
73
69
91
93
72
68
90
92
70
66
91
94
72
66
91
94
71
67
89
93
71
66
90
94
73
67
91
95
72
66
89
94
72
66
91
94
72
67
90
92
70
67
90
94
72
66
89
95
73
65
90
94
73
66
87
91
71
64
89
92
70
64
87
91
67
62
84
89
65
62
82
90
65
60
82
89
67
60
82
87
67
58
83
87
65
60
83
87
67
62
83
93
70
64
87
94
75
68
92
99
81
74
100
109
91
83
108
117
99
93
120
129
113
106
131
144
123
118
144
156
137
131
159
168
150
145
169
180
162
155
179
193
173
166
190
200
181
173
199
206
189
179
206
207
195
187
207
207
197
188
208
207
200
190
207
207
199
190
208
205
198
188
209
209
194
183
204
207
192
182
203
207
190
178
197
205
185
174
193
201
180
168
189
197
174
163
183
191
170
158
178
187
168
155
174
182
162
150
169
178
157
146
165
176
153
142
160
170
149
138
158
169
147
134
156
163
145
133
150
163
144
131
152
161
141
130
148
162
139
128
148
160
139
128
148
159
139
127
148
159
140
128
151
161
140
128
150
162
142
129
149
161
143
132
149
163
144
131
150
164
143
131
150
163
145
132
151
163
146
132
150
163
142
129
149
163
142
131
147
160
143
127
144
159
140
128
143
157
137
123
142
155
137
120
139
154
134
119
135
150
130
114
134
147
128
113
129
145
126
112
127
144
121
105
122
138
119
102
118
133
117
101
116
133
114
97
116
130
112
97
112
126
109
92
109
123
108
91
108
123
105
90
104
121
102
86
102
117
100
83
100
114
98
82
96
114
96
80
97
111
93
76
92
110
92
75
92
109
92
75
91
104
90
73
89
104
89
71
86
106
88
71
86
103
86
70
84
103
87
71
84
101
86
68
83
101
85
67
83
101
85
68
82
101
84
68
82
100
84
65
82
98
83
66
81
99
83
65
81
99
83
67
81
100
83
66
79
99
85
66
80
99
83
66
79
98
83
65
79
97
84
66
79
98
85
66
79
100
85
66
79
97
85
66
80
98
84
66
77
98
85
65
78
97
82
64
77
96
81
63
75
95
82
63
75
93
81
60
74
91
79
59
72
92
78
59
71
92
77
59
73
91
80
60
72
92
82
61
73
95
84
65
80
102
91
74
87
109
101
84
97
120
112
94
109
132
125
108
119
145
136
119
135
160
149
132
146
171
161
146
158
186
173
156
168
193
183
165
179
202
195
175
184
207
198
181
191
208
205
185
196
207
207
188
197
206
207
190
199
208
208
187
196
206
208
188
196
207
205
184
191
208
202
183
189
205
199
178
185
205
195
174
179
199
189
168
174
197
185
164
169
190
181
158
165
185
174
155
160
180
171
150
155
175
165
145
150
172
163
140
144
169
158
136
142
164
157
133
139
162
152
129
136
160
151
128
135
157
148
126
131
156
148
125
130
154
146
126
131
153
147
123
128
154
148
128
129
155
148
126
133
154
147
129
133
157
150
128
133
155
151
129
134
155
150
129
133
158
152
132
134
158
151
130
133
158
150
131
134
157
150
128
132
157
150
128
131
153
146
127
130
153
147
126
127
150
145
122
123
149
143
120
121
145
140
117
118
142
136
114
113
139
134
109
112
134
129
109
108
132
126
103
106
127
123
100
102
123
119
98
99
123
119
96
96
118
115
94
93
118
114
91
91
114
110
88
90
112
109
85
87
111
107
85
85
108
105
84
83
107
102
81
79
103
100
79
76
101
98
76
74
100
99
74
75
96
96
73
70
96
93
72
70
95
94
70
69
93
92
68
68
90
91
68
66
89
91
68
66
92
90
69
64
91
88
68
66
90
92
67
67
89
89
66
66
88
89
67
65
91
91
68
64
90
92
68
64
90
92
67
65
89
90
68
65
90
91
70
66
91
90
69
67
90
90
70
65
91
89
69
64
87
91
67
65
87
89
66
65
88
90
67
65
88
88
68
64
86
89
67
63
87
89
67
61
86
88
66
64
85
87
65
61
84
85
65
60
83
87
67
62
84
88
69
62
87
91
71
65
89
95
75
70
95
100
81
76
102
107
89
86
111
118
99
96
120
129
113
109
133
142
123
117
145
156
138
135
160
167
150
144
171
179
161
158
181
189
169
165
191
198
180
174
199
205
187
182
203
206
191
185
206
207
191
186
207
208
195
185
206
207
193
183
207
207
193
185
204
206
188
180
201
207
187
176
197
204
183
172
194
201
178
166
188
195
175
160
185
189
170
159
179
186
163
153
171
181
159
148
169
175
155
144
165
172
150
139
158
167
146
135
155
162
142
129
150
159
137
127
146
155
135
122
143
152
130
122
140
150
130
119
139
150
129
119
138
149
128
118
138
150
129
117
138
148
130
117
139
151
132
118
142
152
132
121
142
151
135
121
145
155
137
125
146
159
138
124
146
159
138
126
146
159
139
127
148
160
141
127
147
160
139
127
146
160
138
127
145
157
139
124
143
155
136
122
139
154
133
119
138
150
133
120
137
151
129
115
135
146
126
112
131
143
125
110
127
141
121
106
125
138
120
103
122
136
116
101
120
131
112
98
116
130
113
94
112
127
107
93
109
125
105
90
108
121
103
86
103
118
98
83
101
116
98
81
100
112
96
80
97
111
95
77
94
110
92
75
93
107
90
74
91
107
89
73
92
105
89
71
88
104
86
70
87
103
87
69
85
102
86
69
84
101
84
67
83
102
83
66
83
102
83
69
83
102
84
68
85
100
83
68
81
102
83
68
84
100
85
66
82
101
84
68
83
100
85
68
82
101
83
70
83
102
84
68
82
100
83
67
80
97
82
64
79
97
81
65
79
97
83
67
79
97
81
64
79
97
82
63
78
96
81
64
77
98
85
66
81
101
88
70
84
105
92
74
91
112
99
82
97
120
107
91
105
129
116
100
118
139
131
114
130
150
141
125
141
165
153
139
153
176
165
149
163
188
174
158
174
196
186
168
183
206
194
176
190
207
200
182
194
208
204
186
196
206
204
186
197
206
205
185
196
208
203
184
196
208
204
181
192
209
200
180
187
206
197
176
184
205
193
172
181
201
188
167
176
196
182
161
169
191
177
156
164
184
172
149
160
179
166
144
155
175
163
141
149
169
158
134
143
164
153
131
140
161
149
128
136
156
146
125
132
155
143
122
128
151
142
119
127
150
139
118
126
149
137
115
124
145
136
114
122
146
134
116
121
145
137
116
123
148
137
119
127
150
140
119
128
151
143
120
128
153
144
123
133
153
144
124
132
155
146
125
130
155
149
127
135
157
148
124
134
156
148
128
134
157
145
125
132
154
147
127
131
153
145
125
128
152
145
123
126
147
141
120
125
147
139
117
123
144
137
114
117
143
135
111
113
137
132
109
111
133
127
106
109
132
126
102
105
127
121
100
102
127
119
98
100
123
118
96
97
118
114
92
95
118
113
92
93
114
111
89
90
114
108
86
86
110
104
82
86
110
104
81
82
105
102
81
81
105
101
78
79
102
99
76
77
102
99
77
79
102
97
72
77
100
97
74
75
99
95
74
74
98
96
75
74
98
95
74
74
100
95
73
73
98
93
74
73
99
94
73
74
97
95
72
72
96
96
74
72
97
96
74
73
97
97
73
74
96
93
73
70
93
93
70
71
93
93
71
71
93
93
72
72
94
95
72
72
95
94
72
72
95
96
75
73
97
100
78
76
101
104
83
82
107
110
91
90
116
119
100
100
128
134
113
111
139
144
125
124
152
158
139
139
166
170
151
151
177
185
165
163
190
195
173
174
200
206
184
183
207
207
194
191
208
207
199
195
208
207
203
199
208
207
208
199
207
207
204
200
208
208
204
198
207
206
201
195
208
207
199
191
207
208
194
188
208
206
189
181
204
207
183
176
200
202
179
173
195
198
176
168
190
193
169
161
182
188
166
159
181
182
160
151
173
180
156
147
169
173
150
143
164
168
147
137
158
167
144
135
156
162
138
131
153
159
137
128
151
159
134
128
151
155
133
126
148
154
133
124
150
155
134
124
147
154
133
127
146
156
137
126
148
156
135
129
150
159
137
129
150
159
138
130
152
162
140
130
153
161
140
130
152
160
140
132
153
162
140
129
152
161
140
129
152
159
140
129
150
161
138
127
147
155
135
124
146
154
135
124
143
153
130
120
140
150
129
116
136
146
127
114
134
143
124
111
129
140
118
107
127
138
116
104
121
132
113
101
118
131
109
96
116
127
106
93
111
125
105
92
110
120
99
87
108
119
99
87
105
115
94
83
103
115
94
81
99
111
91
78
98
112
89
76
94
106
89
74
93
107
86
73
91
104
85
72
90
103
84
70
90
103
83
70
85
101
81
67
88
100
83
69
86
100
80
67
84
98
81
67
86
98
81
67
84
99
79
67
81
98
78
66
83
96
80
66
82
98
79
65
83
98
79
65
82
98
78
65
82
96
79
64
82
98
81
65
81
96
79
64
78
96
78
64
81
97
78
63
77
94
75
61
76
93
75
59
76
94
75
62
75
92
75
62
79
94
78
61
78
94
78
65
79
96
79
62
81
98
83
69
83
104
89
76
95
114
98
84
104
124
110
97
115
135
124
111
129
150
138
126
144
167
154
141
157
180
170
156
174
193
182
167
186
210
196
183
198
207
206
189
207
206
209
199
207
208
207
203
207
207
207
205
209
207
209
208
207
208
205
205
209
208
208
203
206
207
204
200
207
206
207
197
207
206
206
193
205
205
207
189
198
207
203
181
195
206
199
178
188
208
193
173
184
200
189
168
180
198
182
163
175
193
178
156
170
186
173
154
164
182
169
149
160
178
164
142
155
174
162
141
150
170
158
136
149
170
156
135
145
167
154
133
145
165
152
132
143
164
153
133
142
164
151
132
142
164
151
132
143
166
151
132
143
163
154
134
142
163
154
135
145
164
153
133
143
166
153
132
143
164
156
136
142
166
156
135
142
163
156
133
143
165
154
134
142
162
153
132
139
160
150
130
137
159
148
126
136
155
147
122
129
152
142
121
127
148
141
117
122
144
133
113
119
143
132
110
117
138
129
105
112
136
125
103
111
132
122
100
105
127
119
96
102
125
115
94
98
122
113
92
97
119
111
88
93
118
107
86
90
114
105
82
86
110
101
80
83
108
99
78
82
105
97
75
78
102
95
73
76
99
92
70
75
100
92
71
74
97
90
69
72
97
89
68
69
94
88
66
68
92
86
64
69
89
86
63
66
89
86
61
66
89
84
62
64
86
82
60
62
87
81
58
61
84
80
60
61
86
82
61
62
85
82
60
62
87
83
64
64
86
83
61
63
85
83
60
62
86
82
62
61
85
82
60
62
87
82
61
60
85
83
59
61
83
82
57
60
85
80
59
57
83
79
57
58
82
79
59
55
81
80
58
59
82
82
60
59
85
84
63
64
90
91
70
72
98
97
80
80
108
108
91
94
121
124
106
107
135
138
119
121
150
153
135
136
165
167
150
149
177
181
165
164
189
195
175
177
202
204
185
185
208
206
193
192
206
208
199
199
207
205
204
200
206
208
202
202
207
208
205
198
205
209
203
197
208
208
196
194
207
209
193
189
209
205
187
184
207
207
184
177
200
201
180
174
197
196
174
168
190
191
168
163
184
186
165
157
180
181
158
153
175
174
151
147
170
170
149
141
165
165
141
138
159
161
138
133
154
158
136
129
152
156
134
127
150
153
132
125
146
154
131
123
145
152
129
122
146
150
129
120
145
150
131
123
144
151
130
125
148
153
132
124
148
155
134
125
148
158
136
127
150
156
136
129
150
158
136
128
151
156
136
129
151
157
136
127
149
156
135
126
148
152
132
123
144
151
130
120
144
150
128
119
142
149
126
117
137
145
125
116
135
142
121
110
132
140
117
106
128
136
116
105
126
132
111
102
122
129
108
98
118
125
105
94
114
121
101
92
110
118
97
87
107
117
93
85
103
113
92
81
101
110
89
77
96
107
85
74
94
105
82
73
92
101
82
69
89
100
80
69
87
98
77
66
86
95
76
64
83
95
72
64
82
93
73
62
81
92
73
60
79
92
71
58
78
88
70
57
76
90
70
57
76
88
70
57
74
88
68
55
75
86
69
56
74
87
68
56
74
90
70
58
76
88
70
55
75
88
68
55
74
88
69
55
73
90
69
57
75
87
71
56
74
89
72
57
75
90
72
57
75
87
70
55
72
87
69
55
72
87
69
55
72
89
66
53
72
84
68
53
69
84
67
52
69
85
68
51
70
83
65
49
67
82
63
49
66
81
65
47
66
81
61
48
66
80
66
48
65
83
63
49
65
83
66
51
70
88
73
59
76
93
79
65
83
101
90
75
94
114
100
89
109
128
116
103
123
144
130
118
136
158
146
134
153
173
162
150
170
190
177
165
182
202
190
176
193
207
200
186
203
208
208
193
208
209
209
196
207
207
206
200
207
208
207
199
208
207
207
196
205
207
207
195
206
208
208
191
203
206
205
186
200
207
201
183
194
209
197
177
188
206
192
170
182
201
186
164
178
194
181
161
170
190
174
156
164
183
169
147
161
178
163
144
153
172
157
138
147
166
152
134
146
164
148
128
139
160
147
128
137
155
142
123
134
153
141
121
134
152
140
117
132
153
140
120
132
153
139
121
133
152
140
121
132
153
141
123
133
155
143
125
134
158
144
126
138
158
147
128
138
161
149
127
139
161
150
131
141
162
150
129
139
162
152
130
140
160
150
129
138
160
149
129
137
159
147
127
136
157
146
125
135
155
145
123
131
154
142
121
128
150
138
118
127
149
136
117
124
145
134
112
121
143
131
111
116
138
128
106
113
134
124
102
109
131
121
100
104
125
117
95
100
125
113
92
99
121
112
91
95
117
109
86
93
115
106
83
90
112
103
79
86
109
100
78
83
108
98
78
82
106
99
74
80
104
95
75
77
103
95
73
77
100
91
70
75
99
91
71
74
98
91
68
72
95
89
68
69
94
87
65
70
92
86
65
70
92
86
62
66
89
85
63
67
89
83
62
64
89
81
61
64
88
83
60
64
88
81
60
62
88
82
59
64
86
82
60
62
87
82
59
61
86
82
60
64
85
82
58
63
86
83
62
63
85
81
61
63
85
83
61
62
87
83
60
61
86
83
61
61
86
83
60
60
86
80
60
59
84
81
58
59
82
79
57
57
81
78
56
56
80
78
56
58
79
78
57
55
81
78
56
53
79
76
54
54
80
78
59
56
82
80
58
61
87
87
66
68
93
93
75
76
102
105
86
87
115
117
98
100
128
133
113
115
143
148
129
131
159
162
145
147
174
178
160
162
188
191
174
175
203
204
185
184
208
207
195
192
207
207
202
200
207
209
207
204
209
206
209
204
206
208
206
207
207
208
208
202
207
206
203
198
206
208
199
192
207
206
195
189
207
207
191
185
207
208
185
179
201
202
180
174
196
199
173
170
193
192
169
162
185
187
163
157
180
180
159
151
172
176
152
145
168
171
147
139
162
163
142
134
157
160
135
130
153
155
134
128
148
152
131
124
147
151
127
123
144
149
127
120
144
150
127
120
144
148
129
122
146
152
129
123
147
152
132
124
150
155
134
128
150
158
137
131
153
158
140
132
155
162
140
132
156
162
139
131
158
163
141
132
156
164
140
131
157
162
139
131
154
161
138
128
151
155
137
127
149
154
134
125
146
153
130
119
142
149
127
121
138
146
125
115
136
143
121
111
133
141
119
106
130
138
118
104
123
133
112
102
123
131
108
98
117
126
105
93
115
123
103
91
111
120
98
87
108
116
96
83
104
113
93
81
102
112
90
78
98
107
86
77
94
106
84
71
90
102
83
69
90
102
80
69
87
98
79
66
85
95
75
65
84
96
76
65
83
96
75
64
82
96
75
64
82
95
74
63
82
94
73
61
78
93
73
61
79
93
73
59
80
92
73
60
80
94
73
61
81
94
74
60
79
95
73
60
78
93
74
60
81
94
75
61
80
94
75
60
79
94
75
61
81
95
77
61
79
92
76
60
77
92
73
58
76
92
72
59
78
92
72
59
77
90
72
58
75
91
73
58
74
91
70
55
72
89
72
57
75
90
74
59
76
94
78
63
80
97
80
66
86
104
89
76
94
114
98
86
103
122
110
96
116
137
123
112
131
151
136
125
144
164
152
140
159
180
167
154
172
190
179
163
183
204
191
177
193
208
200
183
199
207
204
190
203
207
207
194
208
208
208
196
208
208
207
194
207
207
206
193
207
207
207
190
203
208
205
186
199
207
201
184
194
207
195
174
189
204
188
169
181
201
184
166
178
193
177
158
168
189
172
153
166
180
165
145
158
176
160
140
152
169
153
135
146
164
147
130
141
160
145
124
137
155
141
120
132
152
137
116
128
148
135
114
126
146
131
112
125
144
131
110
122
141
129
110
122
143
130
113
125
143
132
112
123
145
131
116
128
148
135
116
128
151
137
119
131
154
139
122
133
154
144
126
136
155
145
127
139
158
146
127
137
158
145
127
137
159
147
127
138
156
145
127
135
155
144
125
134
154
143
122
130
152
139
120
129
146
136
117
124
148
135
113
121
143
130
110
117
141
130
108
114
135
124
102
109
134
122
100
109
127
119
96
103
123
115
92
98
122
110
89
95
118
107
86
92
114
105
84
91
113
102
80
88
108
99
79
84
107
97
76
83
103
94
73
78
102
93
71
78
100
91
69
75
97
89
68
72
97
87
65
71
94
86
64
71
93
85
63
69
91
83
64
67
92
84
62
67
89
83
62
68
90
84
62
65
90
84
62
66
91
83
62
68
92
85
62
66
90
84
63
69
91
87
61
67
92
84
63
66
90
83
62
65
90
84
61
63
88
84
60
63
88
81
60
63
87
83
60
63
85
81
58
62
88
83
61
63
86
83
60
62
87
84
62
64
91
88
67
70
95
94
72
75
101
99
80
84
111
110
90
95
122
121
102
106
134
134
116
120
150
149
131
137
164
164
145
151
178
178
160
163
191
192
172
176
202
203
184
185
207
207
192
195
207
208
199
201
206
207
205
207
208
209
208
208
207
206
207
206
204
206
206
205
207
206
204
202
206
207
201
199
207
208
198
194
206
207
192
189
208
206
187
182
205
202
180
177
200
200
176
172
195
192
170
164
186
185
162
159
180
180
157
151
175
172
149
148
169
169
144
140
163
163
138
135
158
158
134
129
154
152
130
126
148
148
127
123
147
150
124
123
145
146
124
119
143
146
122
119
143
145
124
120
143
146
125
121
147
150
128
123
148
151
130
125
149
151
132
126
152
154
134
130
152
156
136
132
155
159
139
133
154
160
139
133
157
159
139
134
156
160
138
131
154
158
137
129
153
157
133
129
152
155
133
126
148
153
129
125
145
149
126
119
142
145
124
116
140
142
121
115
136
142
118
110
133
137
114
108
127
134
111
104
126
132
110
100
123
128
106
96
118
125
102
95
114
120
99
90
111
118
95
87
106
113
93
82
105
111
90
80
100
106
86
75
98
104
84
74
95
103
80
72
93
99
80
70
90
100
77
67
89
99
78
66
89
98
75
66
86
97
75
66
88
94
75
65
88
95
76
65
85
96
73
53
86
95
74
64
86
95
76
57
81
95
77
66
87
98
77
66
88
98
79
67
88
97
78
66
86
98
77
66
86
95
78
65
85
96
76
67
84
96
76
64
85
96
74
63
82
94
73
60
82
92
74
60
83
94
73
61
82
94
73
61
81
93
72
61
82
94
74
63
83
96
76
65
87
100
81
71
94
107
92
79
101
116
99
90
113
127
111
102
126
143
128
118
141
159
143
133
158
174
152
143
174
190
176
164
189
205
183
174
202
208
203
192
208
207
207
197
208
208
206
207
207
205
207
206
208
207
207
207
206
207
208
207
207
207
209
207
207
208
209
207
207
206
208
207
205
206
207
204
208
206
204
200
206
207
209
195
207
208
205
189
203
208
199
182
197
207
193
176
189
203
184
169
184
198
181
163
176
192
173
158
172
186
166
151
164
181
161
146
160
175
157
141
156
170
153
137
151
167
150
132
148
162
147
129
147
161
145
126
142
160
145
127
143
156
132
122
140
158
143
127
140
160
133
125
142
161
147
130
146
162
138
129
145
162
149
131
147
164
140
131
146
167
151
136
148
168
152
133
148
168
153
134
147
166
151
133
147
164
150
132
145
163
148
130
145
160
145
127
138
156
142
125
136
155
141
122
135
152
138
119
130
148
135
113
126
144
130
112
123
142
127
110
121
138
125
104
115
133
120
100
111
130
115
97
108
126
114
94
104
123
108
88
100
120
106
86
96
115
102
83
93
112
100
81
91
111
95
76
86
107
90
63
84
103
92
72
82
102
87
59
79
100
90
69
77
99
83
54
76
98
85
66
74
97
80
53
73
94
82
61
70
92
81
61
70
92
79
60
68
91
80
61
67
89
78
58
66
88
76
57
66
88
77
57
66
89
78
57
66
90
79
59
67
89
80
58
66
89
79
59
67
90
78
58
67
89
79
59
66
90
79
59
66
89
79
59
67
89
81
60
67
90
81
60
67
89
81
60
67
89
80
57
65
87
78
58
65
86
77
57
61
85
79
54
62
85
77
44
58
83
74
54
59
82
74
42
59
83
76
55
59
84
77
48
63
89
85
65
71
96
93
64
81
106
104
85
93
118
118
100
108
137
133
116
125
153
151
133
141
168
167
153
161
188
185
167
175
202
200
184
188
207
207
196
203
206
208
207
209
208
209
209
208
208
208
207
207
206
208
205
207
207
208
206
206
206
207
209
208
208
207
207
209
207
207
207
205
206
207
208
207
209
209
201
203
205
208
197
198
208
209
190
191
206
207
186
186
208
204
180
179
201
199
175
173
196
191
169
167
187
184
161
161
184
179
157
156
179
175
151
149
173
169
146
147
168
164
142
140
165
161
139
137
161
159
135
135
159
156
134
133
158
156
133
133
154
153
132
132
156
155
132
132
155
156
134
132
155
156
135
133
157
157
138
135
158
159
137
133
161
159
139
134
160
160
129
135
158
159
140
136
159
160
127
134
158
158
138
135
156
156
125
130
154
157
133
129
154
153
121
127
148
150
128
124
148
147
124
121
142
143
123
117
140
142
118
113
135
137
116
109
130
133
109
106
129
128
105
102
123
124
103
96
118
122
100
92
116
116
94
90
110
114
91
85
107
108
88
80
103
106
83
77
100
102
82
73
96
100
77
71
95
96
75
68
91
96
73
66
88
94
70
63
85
89
69
62
83
89
67
60
82
87
65
56
80
86
64
57
77
84
64
55
78
83
62
54
75
83
61
53
76
81
59
51
74
80
59
50
74
80
59
51
73
79
57
51
72
80
58
48
71
78
56
47
70
78
56
49
71
77
57
49
71
78
57
47
70
77
56
49
69
76
55
46
70
77
57
47
68
77
56
48
69
78
57
47
70
78
58
49
69
76
46
43
68
79
57
49
67
77
47
44
68
76
56
46
68
76
46
41
65
75
53
43
63
73
42
39
61
71
54
41
61
73
51
39
61
70
53
40
60
69
51
41
62
73
55
42
68
78
57
48
74
85
67
58
80
96
79
73
95
111
92
83
108
124
109
101
126
141
128
121
144
158
145
135
160
177
161
154
176
192
177
167
192
207
190
183
202
206
202
192
206
207
208
200
206
209
206
206
206
209
206
207
207
208
204
207
206
207
207
206
207
207
207
204
207
208
208
201
208
206
206
196
207
208
207
192
208
205
201
185
203
206
195
179
196
207
190
176
191
204
185
169
185
199
180
164
180
190
174
158
174
188
169
153
169
181
163
148
162
177
157
142
156
173
153
138
154
166
149
135
148
164
146
132
146
162
144
130
146
160
142
128
143
157
142
126
142
157
134
116
141
157
141
124
140
158
136
118
142
159
143
126
143
159
139
118
143
161
144
129
144
161
141
120
146
163
146
128
144
161
145
129
144
161
146
129
144
160
145
128
141
158
142
124
137
156
140
122
136
154
138
121
134
151
136
118
130
148
133
114
126
143
131
111
124
141
126
107
121
139
123
105
117
133
121
102
113
132
117
99
111
128
113
94
106
126
109
90
103
121
106
88
99
118
103
83
95
114
100
79
92
111
96
77
88
108
93
73
86
102
92
72
81
102
86
68
77
99
88
66
78
97
83
62
74
96
81
62
74
92
81
60
72
92
80
61
70
90
77
58
69
89
78
56
67
88
75
56
65
86
74
53
66
85
74
55
66
86
76
54
64
85
74
55
64
86
73
54
64
85
74
53
61
83
73
52
61
83
73
50
63
84
71
52
60
80
72
41
61
83
71
52
60
84
72
42
60
82
74
53
61
83
73
43
62
84
74
53
61
82
73
41
59
83
72
52
59
79
73
52
58
80
71
51
58
79
70
51
57
80
70
50
55
78
69
48
54
75
66
49
52
75
65
46
51
74
66
44
50
73
66
45
51
73
66
43
50
73
67
45
52
75
68
47
53
78
73
53
62
86
81
64
70
95
91
73
80
106
103
87
92
121
119
101
109
135
136
118
128
153
150
135
143
171
168
150
161
187
184
167
172
199
197
179
185
206
207
189
194
208
208
197
203
207
209
203
208
206
207
206
207
206
207
208
208
206
209
208
208
208
207
203
206
207
208
201
201
208
208
196
195
206
207
191
193
207
209
186
185
207
200
179
180
200
198
175
173
196
189
167
166
188
182
162
160
182
178
154
155
177
173
149
148
171
167
135
142
165
162
139
138
159
157
125
134
156
154
132
130
151
150
119
127
148
147
125
124
148
146
115
122
148
146
125
122
148
146
125
124
148
146
126
125
148
148
127
126
149
148
129
127
151
151
130
128
150
151
129
128
152
153
132
128
154
153
131
129
153
154
133
131
155
154
131
128
155
155
133
130
153
154
131
127
150
151
130
126
150
150
128
125
147
146
124
119
143
144
122
119
141
142
120
114
136
140
115
112
133
136
112
107
129
133
107
103
126
128
105
97
122
124
102
96
120
122
100
92
115
118
96
90
112
114
92
86
109
112
90
85
106
109
86
80
102
105
84
78
100
103
81
74
96
101
78
70
91
97
76
69
90
95
73
66
88
93
71
65
88
94
70
63
86
91
71
61
84
91
68
63
84
89
69
60
83
90
68
61
83
90
69
61
83
89
63
50
83
88
69
62
83
90
67
50
84
89
69
59
84
90
67
51
84
91
68
61
82
91
66
50
84
90
69
61
82
90
68
61
81
90
69
61
83
91
69
59
81
90
69
62
82
90
70
60
81
91
69
61
81
90
69
60
83
89
69
57
78
89
68
59
78
88
66
56
78
89
68
56
76
85
65
54
75
85
66
54
75
84
65
55
74
86
68
57
76
88
69
61
82
94
75
63
88
101
84
75
95
111
95
84
107
122
105
98
121
136
120
111
133
150
132
124
148
162
147
140
161
179
162
155
175
190
174
165
186
202
185
176
196
207
194
184
205
205
200
188
207
207
204
193
206
206
209
195
209
208
207
194
209
208
207
193
208
208
204
190
207
209
200
186
202
207
196
180
195
206
191
175
192
205
183
169
185
199
180
164
180
192
172
158
173
187
167
153
166
180
160
143
159
174
155
138
153
167
150
134
148
164
143
127
142
156
139
123
136
152
136
119
133
149
131
114
131
147
128
114
127
144
126
110
126
142
126
111
126
142
125
111
128
144
129
113
129
144
129
113
129
148
131
115
132
149
135
118
134
152
136
120
135
155
138
120
138
156
141
114
137
156
141
124
140
158
140
114
139
157
141
125
137
155
141
115
138
156
138
122
137
152
137
112
133
151
136
116
129
146
133
114
127
146
129
112
123
141
125
107
119
137
126
104
116
136
120
101
114
133
117
98
109
128
114
96
107
125
110
92
103
120
108
87
99
117
103
82
95
114
99
79
92
110
97
76
87
107
93
76
85
105
91
72
85
102
88
69
80
101
88
66
78
99
85
66
78
97
84
63
73
93
81
63
74
96
82
62
72
94
80
63
72
91
80
58
70
91
78
59
69
90
79
58
67
90
79
60
69
89
78
58
67
91
78
59
69
88
78
57
68
89
78
57
66
89
78
57
67
89
78
59
66
90
78
61
68
90
80
58
66
88
78
57
65
88
79
58
66
89
79
56
63
88
78
59
64
87
76
55
62
87
78
58
64
85
77
56
63
85
78
56
62
86
78
56
61
85
76
57
64
87
80
58
64
88
82
61
68
94
84
66
75
100
95
76
85
109
105
88
94
121
117
99
108
133
130
111
121
149
145
126
133
162
158
140
150
175
174
155
162
188
186
166
175
201
197
176
184
207
205
185
191
208
207
192
198
205
206
187
197
206
207
197
200
208
207
188
200
206
209
196
199
208
206
183
191
207
207
190
190
206
206
175
185
207
205
181
182
205
198
176
176
199
193
171
170
194
189
166
165
188
184
160
159
181
176
154
154
176
172
148
148
170
167
145
142
167
161
138
139
161
157
134
132
157
151
130
129
152
147
126
126
149
148
126
124
149
146
122
122
147
145
123
122
146
145
121
120
146
144
122
121
146
146
124
124
148
150
126
127
149
152
128
129
151
152
130
129
155
155
131
130
154
155
132
131
154
157
135
132
156
157
134
132
156
156
134
131
155
157
135
131
154
154
133
128
153
153
130
130
152
151
128
123
149
151
129
124
147
147
124
119
144
142
119
115
139
139
117
112
133
138
115
109
132
134
113
106
129
131
107
102
126
127
104
99
119
122
99
94
116
119
99
91
114
117
95
88
109
114
90
83
107
110
90
83
106
109
86
80
103
106
85
77
99
104
81
74
96
101
79
73
96
100
79
70
92
97
76
70
94
97
76
69
90
96
74
68
91
98
74
64
89
93
74
66
89
95
71
64
87
94
73
65
89
95
72
65
87
96
73
64
87
96
73
65
88
95
64
60
86
94
72
64
89
95
65
58
86
95
74
65
87
97
66
58
88
95
75
65
87
96
68
61
87
95
75
67
87
97
73
67
86
96
74
64
86
95
74
64
85
95
74
62
84
94
72
62
83
92
72
62
83
93
71
59
83
92
71
61
82
95
75
63
86
98
79
69
94
105
86
76
98
113
95
86
110
125
107
99
124
139
121
112
139
152
137
129
152
166
151
143
167
181
167
160
181
198
182
171
195
208
193
181
206
207
203
191
206
208
207
201
208
206
206
205
208
206
207
206
207
206
206
207
206
208
209
208
207
209
208
207
208
207
208
204
207
209
207
201
206
207
207
194
207
206
207
191
206
207
202
185
203
206
196
182
197
208
192
176
192
205
188
169
187
201
183
165
181
196
177
159
177
191
173
155
170
184
167
149
165
180
162
148
164
177
159
141
159
174
156
142
158
173
157
137
154
170
154
138
153
170
153
136
152
168
152
136
152
170
153
137
150
169
152
137
151
170
153
136
152
168
153
140
153
171
156
137
153
170
154
140
154
171
156
141
155
171
157
139
153
172
157
138
152
170
157
138
150
171
155
137
150
169
153
133
149
165
144
120
146
165
149
130
143
160
141
116
138
156
142
123
136
153
137
109
133
150
136
116
129
147
128
104
127
145
131
111
123
142
126
108
117
139
125
104
114
135
120
99
110
128
116
95
107
124
113
92
104
124
111
91
99
121
107
88
96
117
103
83
94
114
101
81
90
112
100
79
88
111
99
78
86
108
96
75
85
106
93
73
82
104
94
72
85
105
93
71
82
102
92
71
78
101
90
71
76
100
88
69
76
98
87
67
75
97
88
66
75
97
88
64
73
98
87
66
74
97
87
64
72
95
86
64
71
94
84
64
73
95
86
64
73
95
85
64
71
96
86
66
73
95
86
64
70
95
86
66
72
95
87
64
72
95
85
64
68
92
82
62
68
91
85
61
68
92
83
61
65
88
82
60
67
89
80
60
63
88
81
58
64
87
81
58
64
89
82
60
66
89
83
62
69
94
87
68
75
100
96
78
83
108
104
85
93
120
117
98
106
135
130
113
120
149
145
128
135
163
162
143
152
178
176
157
164
192
191
172
177
204
202
181
188
207
207
191
197
208
208
199
203
208
209
203
206
207
208
204
208
208
207
208
208
208
207
207
209
207
206
196
205
206
209
202
203
207
208
190
197
208
208
194
194
207
208
177
189
208
207
185
183
206
203
169
178
201
198
175
173
195
192
169
167
191
189
164
162
184
183
159
157
181
179
155
154
176
173
150
148
172
171
148
145
168
165
145
142
166
166
140
139
163
161
141
140
162
162
139
135
163
161
139
135
161
160
138
137
159
160
138
135
159
161
138
135
160
159
139
136
161
161
141
136
160
162
141
136
159
162
140
137
159
162
140
137
159
162
138
135
159
162
138
134
157
160
139
134
155
157
137
131
155
159
135
129
151
155
132
128
148
152
129
122
146
151
127
120
141
145
123
116
140
144
119
113
135
139
117
110
131
136
112
105
129
131
108
102
126
130
107
99
121
125
102
95
116
122
100
92
113
119
96
88
109
116
93
86
108
114
93
83
105
111
90
79
103
107
85
77
99
107
85
76
97
104
82
73
94
102
81
72
93
101
79
71
92
100
78
69
91
100
76
67
89
97
75
67
89
96
76
64
88
95
76
65
87
95
74
63
84
94
73
63
82
92
72
63
84
94
72
62
84
93
72
60
82
93
71
59
82
92
70
60
81
92
73
62
84
93
63
55
82
92
73
61
83
93
65
58
84
93
73
61
81
93
63
57
81
93
72
63
81
93
65
56
81
93
72
60
79
90
71
58
77
88
69
56
77
89
68
55
75
87
68
56
75
89
68
56
76
90
69
60
77
90
70
60
79
94
77
65
87
102
85
72
95
112
95
84
104
122
107
95
116
136
119
110
131
148
133
122
143
162
147
137
157
176
162
150
174
189
175
165
184
201
188
174
192
208
197
183
202
207
205
192
208
208
208
194
208
209
208
197
207
208
208
197
207
206
205
196
206
206
207
194
205
207
206
192
207
206
202
187
201
209
199
183
197
207
194
177
190
207
189
170
184
203
185
165
180
196
177
160
174
190
173
155
168
187
168
149
164
183
165
148
160
176
160
141
156
170
154
137
151
167
151
132
145
165
147
131
143
161
145
126
140
159
144
125
140
159
143
125
140
157
142
126
139
158
144
125
138
158
142
128
137
157
144
125
137
157
144
126
138
160
146
128
139
159
147
127
142
160
148
129
141
162
149
128
141
159
149
129
140
160
148
130
139
158
146
125
137
159
144
127
135
156
141
122
134
154
140
120
128
150
138
115
127
146
129
103
123
144
129
108
120
139
127
98
116
138
125
105
113
134
117
90
109
131
118
98
107
128
113
86
103
125
111
90
99
121
110
89
96
119
105
84
94
115
104
83
88
112
103
79
88
111
99
78
83
108
97
78
83
104
95
73
81
103
92
70
79
101
92
69
77
99
91
68
74
98
88
68
72
95
87
66
71
94
85
64
70
94
84
62
69
91
84
63
68
93
83
62
69
90
83
60
69
91
83
61
65
90
83
62
68
90
84
61
65
91
84
63
67
90
84
63
66
93
84
62
68
91
83
62
65
92
84
62
67
91
83
63
67
91
85
64
66
90
84
61
65
89
83
62
63
88
81
60
63
87
83
59
60
85
81
58
59
83
78
56
59
85
81
56
60
82
77
57
58
84
80
57
62
84
80
60
62
89
85
65
68
96
93
73
76
101
102
81
82
113
109
93
95
124
124
104
108
137
138
119
122
151
151
132
136
162
165
145
148
174
176
158
162
189
190
172
171
198
199
179
180
206
206
186
188
208
209
194
193
209
208
196
196
208
207
197
196
208
208
197
193
206
206
196
193
208
207
193
190
208
207
191
184
207
207
183
181
201
204
180
177
200
198
175
172
194
192
169
164
188
186
165
160
180
184
161
155
176
180
155
149
172
173
149
145
167
167
145
138
161
162
138
134
158
159
137
130
151
153
131
128
150
151
130
124
148
150
126
121
145
148
126
120
145
146
124
120
144
146
127
118
143
147
127
120
143
148
127
121
143
149
127
123
146
152
131
123
147
153
130
126
149
154
133
128
150
155
134
127
150
155
135
128
150
154
133
127
149
156
133
124
147
155
132
123
145
150
131
120
142
148
126
119
139
146
126
114
137
142
120
112
134
139
119
108
129
137
115
105
125
132
111
102
123
131
110
99
121
126
106
96
116
124
100
92
113
119
99
88
110
117
96
85
105
113
91
82
103
110
91
78
99
109
87
77
97
106
84
72
94
103
84
73
91
102
80
69
91
101
81
70
87
97
77
67
86
97
76
64
85
95
65
61
83
93
74
62
81
94
64
61
81
93
73
61
79
91
62
58
80
92
73
59
80
91
63
59
77
93
71
59
78
91
71
59
77
92
72
59
77
92
73
61
78
92
73
59
78
92
74
60
79
94
75
59
78
91
75
59
77
92
72
59
77
92
73
57
74
88
72
57
75
89
70
55
74
89
72
54
72
86
68
53
73
88
70
53
72
86
70
53
71
86
68
51
68
85
67
51
69
87
69
53
70
87
72
58
75
94
76
62
81
97
82
68
89
107
95
81
99
120
106
93
113
131
116
104
122
142
130
117
135
157
143
132
150
171
158
141
161
181
169
153
170
190
178
162
181
198
183
169
185
204
191
174
190
207
196
179
195
207
198
180
195
208
197
181
192
207
195
178
190
207
195
176
188
206
192
173
185
204
191
170
182
200
185
167
177
196
180
160
172
190
178
156
168
187
170
151
163
180
167
144
156
176
162
142
153
170
155
134
145
166
151
131
140
159
144
125
135
153
142
124
133
152
138
120
128
151
136
116
126
146
133
111
124
145
132
114
124
146
135
115
125
145
136
116
125
147
135
116
126
148
137
117
128
150
140
121
132
152
144
121
132
153
142
124
134
156
146
127
135
157
148
128
138
157
147
128
136
160
150
128
137
158
148
128
135
157
146
125
135
155
145
124
129
154
144
123
130
152
143
121
127
147
139
116
121
143
134
111
119
141
133
110
116
138
130
107
112
132
125
102
109
131
123
100
106
127
118
97
103
123
115
94
99
121
112
90
94
116
108
87
90
114
105
84
85
110
102
81
85
108
102
78
80
104
97
75
81
104
97
75
78
101
95
74
76
99
95
71
75
98
94
69
75
99
91
69
73
96
93
69
72
95
90
68
71
96
90
69
71
95
91
67
71
94
92
69
70
94
88
68
69
94
90
68
68
93
91
67
70
94
90
68
71
94
89
68
70
92
90
67
67
93
89
67
69
92
92
68
66
91
89
69
66
91
89
67
66
89
89
64
63
88
87
64
63
88
87
65
64
90
86
55
65
91
88
66
64
90
89
58
68
92
94
72
74
99
99
69
81
107
109
89
89
118
117
89
99
128
129
112
111
139
144
124
125
154
156
139
138
164
168
150
150
178
181
161
160
189
191
174
173
199
203
182
179
205
208
189
186
208
207
195
189
208
208
197
196
205
208
198
194
206
207
199
194
207
209
199
194
207
208
195
188
208
206
192
187
208
207
187
183
202
205
182
175
198
201
178
172
193
195
174
165
188
190
168
160
182
184
164
157
178
180
159
149
173
176
155
143
166
173
147
142
161
168
143
135
156
162
142
132
153
159
135
128
148
154
132
123
146
151
131
122
145
150
130
120
144
150
127
120
143
149
129
119
143
149
128
119
143
152
132
124
144
152
133
123
146
156
134
125
149
158
136
126
150
158
138
129
151
159
140
130
150
159
139
130
151
159
137
129
149
159
140
127
149
159
137
124
147
157
136
126
144
154
133
121
143
151
132
119
139
149
127
114
135
144
125
112
133
144
121
108
127
139
118
104
125
135
116
104
120
133
113
99
118
128
108
96
113
125
106
93
113
123
103
90
106
120
101
86
105
118
96
83
101
115
95
81
100
111
94
78
94
110
89
75
96
107
89
73
93
108
87
72
91
105
86
72
88
103
85
70
87
103
84
70
89
103
86
70
89
103
83
68
86
101
83
69
86
102
85
68
85
101
82
67
84
101
83
68
86
102
83
68
84
100
85
67
85
101
82
67
83
101
84
67
85
99
85
68
84
99
83
69
82
99
83
66
83
101
85
68
83
101
83
68
84
102
86
67
82
101
84
67
82
102
85
67
84
100
88
67
82
102
87
69
84
104
90
73
88
109
96
79
96
117
105
89
107
127
112
98
115
139
126
112
129
151
140
125
143
166
153
138
157
179
168
152
170
191
181
166
183
203
193
178
193
206
202
187
202
208
208
196
207
208
209
200
207
208
208
205
208
207
208
204
208
206
207
206
207
208
208
204
207
208
207
202
206
207
208
198
206
206
206
194
205
207
207
191
198
208
204
186
195
206
203
179
188
207
194
176
185
204
191
170
179
197
185
166
176
193
182
161
170
189
177
155
163
183
171
151
158
177
166
144
153
173
162
141
149
171
159
138
145
168
158
137
144
164
155
132
139
163
154
133
142
161
152
132
139
160
154
130
139
162
151
129
136
160
151
132
137
159
153
130
138
161
155
133
142
161
154
132
139
162
155
134
141
162
153
130
138
160
153
132
137
160
151
130
137
159
150
128
133
156
149
125
131
154
148
125
130
152
145
123
127
148
141
118
123
144
139
117
120
141
137
114
118
141
133
111
113
135
130
108
110
132
126
103
106
128
122
99
100
123
118
96
96
120
113
93
94
117
112
89
91
114
111
86
88
112
106
83
85
109
103
81
81
105
101
79
80
103
100
77
78
100
97
76
75
98
95
73
75
98
94
72
73
95
93
69
71
92
91
69
67
92
91
67
67
90
88
68
65
89
88
67
65
90
87
66
65
90
89
66
65
89
88
65
63
88
87
66
63
88
87
66
63
87
88
65
63
86
87
64
63
85
87
66
63
89
88
65
64
87
87
65
60
87
87
67
62
86
89
67
62
86
90
67
64
87
87
66
63
84
86
66
60
85
86
65
60
85
85
63
59
82
86
62
58
80
85
63
58
80
84
62
56
81
84
61
56
79
83
61
56
80
85
64
60
86
91
70
66
91
95
77
74
101
106
88
85
112
116
98
95
124
131
114
113
139
148
129
128
154
164
145
144
170
178
162
158
185
194
175
172
195
206
189
184
207
207
197
190
206
207
206
199
207
206
206
203
205
208
207
205
205
206
208
206
208
207
207
205
206
208
206
204
207
207
208
200
207
209
207
198
208
208
204
191
207
206
198
188
208
206
194
183
203
208
191
178
199
205
183
173
193
200
179
167
186
195
174
164
182
193
169
158
176
186
166
154
172
181
159
149
168
177
157
144
163
173
152
140
161
169
151
137
157
168
147
136
154
164
147
135
152
164
145
133
152
162
143
131
151
161
143
129
148
163
142
130
150
161
142
131
149
162
142
131
148
159
141
130
147
161
142
130
148
160
141
129
146
158
141
128
146
160
139
125
145
156
139
123
142
157
138
123
140
155
137
121
139
150
133
118
134
148
133
116
133
146
128
114
130
143
126
112
126
143
123
108
123
137
120
104
120
136
118
101
116
132
114
99
114
129
109
94
110
124
108
90
106
122
104
88
103
118
100
83
100
116
97
81
96
111
94
79
92
111
92
76
90
104
90
70
88
104
88
71
85
102
85
68
83
101
83
66
81
98
81
65
78
96
80
65
79
96
80
61
75
95
78
61
74
92
77
60
73
90
76
59
72
91
75
58
72
91
76
60
71
91
76
56
70
90
75
58
71
88
76
56
67
89
74
57
69
89
75
57
69
89
74
57
67
88
74
57
70
89
75
56
68
89
75
55
67
88
75
56
68
87
76
55
66
87
75
55
66
87
74
55
65
86
73
56
66
86
73
53
64
84
75
53
64
84
73
52
62
82
71
50
60
83
70
51
59
83
70
50
60
82
68
50
57
81
69
49
58
81
70
51
59
82
73
55
65
89
80
60
72
95
87
70
80
106
99
81
92
119
113
95
106
132
126
109
121
149
143
126
138
161
159
141
152
178
175
156
164
192
186
168
177
201
198
179
188
206
204
187
195
208
206
192
202
209
208
198
203
207
206
200
205
206
207
198
205
207
207
197
202
207
207
196
199
206
207
192
195
208
208
185
191
207
206
182
188
208
202
179
182
203
197
172
176
199
191
168
170
192
185
164
165
189
182
159
162
183
176
156
158
179
173
150
153
175
170
148
149
170
166
142
143
168
161
142
141
162
157
137
138
161
156
134
134
159
155
132
134
155
152
132
133
154
150
131
132
155
151
128
129
153
150
130
130
156
152
129
129
154
151
130
132
154
150
131
132
155
152
129
131
157
153
129
129
155
152
132
130
155
151
130
130
153
152
131
129
152
149
128
127
151
149
127
125
147
145
125
123
146
142
122
119
142
142
119
118
138
138
116
111
134
134
115
108
135
133
111
107
130
131
106
103
124
126
105
100
123
124
100
97
118
120
97
92
116
116
94
87
112
114
92
86
109
112
87
83
105
107
84
79
102
104
82
77
98
101
79
73
97
99
77
73
94
97
75
72
94
97
74
69
90
95
73
65
89
92
72
65
89
93
69
64
88
91
70
61
84
90
67
61
86
88
65
59
83
89
67
60
82
86
65
59
81
87
66
58
79
85
65
57
79
85
64
57
80
85
64
58
80
86
64
57
79
87
65
57
78
84
67
54
77
85
64
56
80
85
64
55
75
85
65
55
78
86
65
56
76
84
64
53
75
84
64
53
75
83
63
52
73
83
62
53
74
83
61
52
73
84
63
53
75
84
64
54
75
84
63
54
76
84
67
53
74
84
62
52
72
83
63
52
71
82
61
52
72
83
62
49
70
80
59
45
67
80
58
47
67
78
58
45
65
78
57
47
66
78
58
44
66
77
58
49
67
80
62
49
70
84
67
55
77
91
75
63
84
101
84
76
95
113
96
88
108
126
112
102
125
143
128
118
143
161
145
135
158
177
163
152
173
192
177
167
188
207
193
182
201
208
204
193
207
207
205
199
205
208
208
208
208
206
209
207
209
208
209
208
207
207
206
207
207
205
207
207
209
208
207
202
209
207
208
199
210
208
207
193
207
208
205
185
201
206
197
181
196
207
192
175
189
204
186
169
183
201
181
166
179
193
176
159
173
191
173
155
170
185
166
149
164
182
162
145
159
176
158
140
153
174
156
139
153
168
153
137
150
168
153
136
147
168
150
132
146
166
149
134
147
165
152
133
147
165
150
134
147
167
152
135
148
167
154
135
150
167
155
136
146
168
153
135
149
168
155
136
147
168
154
137
149
167
155
135
147
167
154
134
146
164
150
134
145
164
151
132
142
163
149
129
138
159
146
128
137
157
143
124
134
154
141
123
133
152
140
118
129
148
135
113
124
145
133
112
121
140
128
109
117
137
124
103
114
133
122
101
109
130
118
99
105
126
114
93
102
125
111
92
99
119
110
88
94
119
107
86
90
114
105
82
90
109
101
79
87
108
98
78
84
107
97
76
83
104
95
73
79
103
93
71
79
102
92
71
77
100
91
69
77
99
91
69
74
98
88
66
73
97
88
67
72
95
86
65
70
94
87
65
70
93
85
64
68
92
84
63
67
91
84
61
67
91
84
63
66
90
84
63
67
91
84
63
67
91
84
64
66
91
86
64
68
91
84
66
67
92
86
64
67
92
86
65
66
92
86
66
69
90
85
65
67
92
86
65
67
92
86
63
67
91
86
65
65
92
86
66
65
91
86
64
66
89
86
63
64
88
84
63
63
87
81
61
60
86
83
61
62
84
82
60
61
86
82
62
62
85
83
60
62
84
83
63
62
87
83
61
63
86
86
66
67
92
91
72
72
98
99
78
80
106
108
89
89
117
120
100
102
133
134
116
115
145
148
132
133
159
161
146
147
175
179
159
161
190
192
176
176
202
206
187
185
207
207
195
197
208
209
204
203
206
208
206
204
207
207
209
205
207
207
207
206
208
208
206
205
208
209
206
203
208
208
203
196
207
207
199
192
209
208
193
186
206
208
188
182
202
205
179
174
195
198
174
167
190
192
171
162
185
187
164
155
180
180
159
152
174
175
151
145
167
171
148
140
161
165
145
135
156
161
141
132
153
158
135
128
151
156
134
126
147
155
131
125
147
153
133
123
144
152
131
123
146
151
130
122
146
153
130
121
145
152
133
125
146
152
132
124
146
154
136
126
150
157
137
128
151
159
138
129
150
157
138
129
151
159
138
129
150
158
139
129
152
159
138
128
147
155
135
125
146
155
135
125
144
153
131
121
142
150
130
117
138
148
126
117
134
144
124
112
132
142
118
108
127
137
116
106
125
135
113
102
120
131
111
98
116
127
107
93
115
123
104
91
109
121
101
87
107
120
99
87
105
117
96
83
101
114
92
80
99
108
90
74
95
107
87
73
91
104
85
70
89
101
82
68
88
100
82
68
85
99
81
66
83
97
76
63
82
97
78
63
82
95
75
61
80
95
76
60
78
93
75
59
77
92
74
61
77
92
76
60
76
92
74
59
78
90
75
59
78
93
75
60
75
92
75
57
76
91
74
59
77
92
74
61
76
92
77
58
75
93
75
59
77
94
77
62
76
93
76
59
75
92
76
60
76
94
76
61
75
94
77
62
73
92
75
58
73
91
75
57
73
89
73
58
72
88
74
56
71
88
73
56
71
88
74
55
70
88
72
55
68
89
74
58
72
92
78
61
75
97
82
67
83
103
90
74
91
113
101
84
100
122
114
96
111
134
123
108
124
149
138
121
139
161
151
136
152
174
165
150
167
188
179
163
177
201
188
172
187
207
200
182
196
207
204
187
201
207
209
193
202
207
207
194
205
208
208
193
204
206
205
193
202
207
207
189
200
207
208
187
195
208
201
183
190
208
196
176
185
202
193
170
180
199
185
166
173
193
178
158
166
186
173
151
161
181
168
145
154
175
162
142
149
169
156
134
143
164
152
130
136
158
147
126
134
154
142
120
129
150
140
120
127
148
136
116
123
146
135
114
120
143
134
113
121
144
133
113
121
144
135
113
121
144
136
115
122
144
138
117
125
147
142
120
127
151
142
123
128
151
144
124
128
152
146
126
130
154
145
124
130
154
146
125
130
153
150
127
133
155
148
127
130
154
147
125
128
152
144
124
128
151
145
122
126
147
141
119
124
146
140
119
121
144
137
114
116
140
135
110
116
137
132
109
111
133
129
106
107
131
125
102
102
125
120
99
100
124
119
96
96
119
114
95
93
117
114
90
91
112
109
86
87
111
106
84
84
108
104
83
80
105
101
78
78
103
100
78
77
103
98
75
75
98
97
74
73
97
96
72
72
95
95
71
70
94
92
70
69
92
91
69
68
92
93
69
69
93
94
69
67
92
91
68
66
92
90
69
66
92
90
70
67
92
92
70
68
93
93
69
66
93
92
70
69
91
94
71
66
92
92
70
65
91
89
70
65
90
90
68
64
90
90
68
65
88
91
69
64
86
90
67
63
87
88
68
63
88
88
69
62
89
92
70
68
90
94
73
70
96
100
81
78
103
110
89
84
110
118
97
94
120
128
110
106
134
140
123
119
148
154
135
132
160
167
149
145
172
179
163
158
185
193
174
169
197
203
185
181
205
206
193
187
207
208
199
192
208
208
201
196
208
208
206
195
207
208
206
198
205
208
202
195
207
208
200
191
206
208
198
186
208
208
193
183
203
209
187
176
196
201
181
170
189
197
175
163
182
191
169
157
179
184
163
151
171
180
156
146
166
171
151
140
159
167
145
134
152
162
142
129
148
157
135
123
143
154
132
120
141
153
131
119
138
148
127
113
136
144
125
115
134
145
124
112
134
145
124
112
133
143
123
114
136
146
127
115
136
148
128
117
137
151
131
118
139
151
133
121
140
153
135
121
141
153
135
123
142
157
137
125
142
157
139
126
147
158
138
126
144
159
138
126
144
156
139
125
142
153
136
122
138
154
135
122
140
151
133
117
134
148
129
114
131
144
127
113
128
143
123
107
125
138
120
103
123
136
118
102
120
133
114
98
114
130
112
95
110
125
107
91
107
121
105
90
106
119
103
88
102
118
98
83
100
116
97
81
96
111
94
77
95
109
93
76
91
109
92
75
91
107
89
73
88
105
90
72
88
104
86
71
86
103
86
68
84
101
85
68
84
100
85
66
80
98
84
67
81
100
82
66
81
99
83
65
78
97
84
64
80
98
83
66
79
98
84
65
78
97
83
64
79
100
84
66
79
97
84
65
79
96
83
65
79
98
86
65
77
97
83
63
77
98
81
62
76
95
84
63
75
93
83
62
73
93
82
63
73
94
81
63
74
96
83
65
77
100
88
70
81
103
93
75
91
111
103
87
100
123
114
97
110
136
127
111
126
150
143
128
139
166
156
141
155
178
171
156
169
193
187
170
183
208
198
183
193
206
206
190
203
205
208
200
208
209
207
202
207
207
207
207
208
208
208
206
207
207
208
203
208
207
206
203
205
207
206
202
207
206
206
196
202
207
208
194
198
207
205
187
192
206
202
180
186
207
199
176
181
203
191
169
175
196
184
164
168
189
179
160
161
185
176
153
157
180
171
147
151
173
164
141
146
168
161
138
143
165
157
133
139
160
152
132
135
158
151
128
132
155
148
128
133
155
147
126
131
152
146
125
128
153
148
125
129
153
147
126
131
155
150
127
132
154
150
128
129
153
149
129
132
156
152
131
133
157
152
130
133
158
154
131
134
156
151
128
132
156
152
129
131
155
150
127
131
154
149
127
129
152
149
125
127
149
147
125
124
148
145
122
121
144
140
119
117
142
135
113
113
137
132
113
108
135
132
108
107
131
128
105
104
126
122
101
97
123
119
96
97
118
116
94
93
117
114
91
87
114
111
88
85
109
109
85
82
107
107
83
81
105
104
82
77
103
100
78
75
98
98
75
71
97
98
75
71
95
96
72
70
94
95
72
67
93
93
73
67
90
90
68
65
88
89
68
64
88
90
66
63
88
87
68
60
85
89
66
63
85
87
67
63
85
89
67
62
85
89
68
63
86
88
66
61
86
89
67
62
86
89
67
62
86
90
68
61
85
89
68
62
84
89
67
62
85
88
66
60
83
89
68
59
83
85
64
59
81
88
65
58
81
85
65
57
81
85
64
55
79
86
65
55
78
86
65
58
81
89
67
59
84
90
73
65
89
97
77
69
95
105
86
81
104
115
98
93
117
128
110
105
130
143
125
120
145
157
141
135
159
172
153
147
173
184
169
162
188
199
182
176
201
207
192
186
207
208
201
193
207
207
207
196
207
207
209
200
207
207
207
202
205
205
207
198
209
207
206
197
207
206
207
194
207
207
201
192
207
207
199
186
205
209
196
182
200
209
189
177
193
204
182
170
187
199
179
165
182
194
173
160
177
186
165
153
172
183
163
148
166
174
155
143
159
171
150
137
154
165
148
132
151
164
143
128
147
160
141
126
143
159
139
124
142
155
136
122
140
154
135
123
140
155
137
122
140
155
135
121
141
152
135
123
138
153
136
123
140
156
137
123
141
157
139
124
140
156
140
126
142
158
141
127
142
159
141
127
144
159
143
125
142
157
142
125
143
157
140
123
139
155
138
121
137
153
138
119
136
151
132
118
132
148
129
113
128
145
127
110
124
143
124
107
122
137
118
105
119
135
118
101
115
129
116
96
111
127
111
95
108
125
106
89
103
121
104
88
101
118
102
83
97
114
97
82
94
112
97
77
93
108
93
77
90
107
91
72
86
107
90
71
86
102
87
70
82
100
86
67
80
99
85
64
77
98
82
65
77
94
81
63
76
95
81
61
72
94
81
60
74
91
78
59
73
92
80
59
72
90
78
58
70
91
77
58
69
90
78
58
69
90
78
58
68
90
77
57
69
91
80
59
69
92
79
59
70
91
80
60
69
91
79
60
70
92
81
59
70
92
81
61
70
91
79
58
69
91
81
59
67
89
80
60
68
89
77
57
66
89
76
57
63
86
76
55
65
84
75
56
66
88
77
57
65
86
78
56
64
87
79
60
67
93
84
65
75
98
92
70
80
107
99
81
91
115
110
90
101
130
122
106
116
141
137
116
129
154
151
132
143
170
165
146
157
183
180
163
171
198
191
174
184
204
201
182
190
209
206
190
200
206
207
197
202
209
209
199
205
209
210
201
207
209
207
200
203
207
208
198
200
207
207
195
198
209
208
189
192
206
207
185
187
208
203
180
182
203
198
174
177
199
192
168
170
191
186
164
164
186
180
158
157
179
175
150
153
176
170
146
147
168
163
141
141
164
156
136
135
159
154
131
132
155
151
128
130
152
148
128
128
150
147
125
124
149
146
123
123
145
143
121
122
145
142
122
121
146
144
122
122
145
144
121
120
145
144
123
121
148
146
124
125
148
149
126
125
149
148
127
125
151
150
127
125
151
150
130
126
149
150
127
125
149
147
128
123
147
147
125
123
145
146
124
121
144
143
119
119
139
141
118
114
137
136
114
111
135
135
112
108
131
131
109
104
128
130
107
101
125
125
104
99
122
121
99
95
120
120
99
94
116
117
96
89
112
114
92
86
108
111
88
81
105
108
86
79
103
105
83
76
100
103
79
72
97
99
78
71
94
97
73
68
91
95
72
68
89
92
71
63
88
92
71
64
85
91
67
62
85
89
67
60
81
87
66
59
82
87
67
59
80
86
63
59
79
85
67
58
79
87
63
57
79
85
64
55
78
85
64
55
78
86
64
54
79
84
65
55
77
85
65
55
79
85
65
54
79
87
65
55
78
87
66
55
80
87
66
57
79
87
67
56
79
87
66
55
79
87
64
55
78
87
65
57
75
86
66
54
76
87
66
53
76
85
65
52
74
83
63
54
74
83
64
52
73
85
63
54
73
84
64
54
75
89
67
58
80
92
70
62
84
98
79
70
93
106
88
81
102
117
100
91
117
132
114
106
128
146
128
121
144
159
143
134
156
174
157
147
171
187
171
162
184
198
180
170
191
206
190
179
201
208
198
187
205
208
201
190
205
206
204
190
207
209
203
190
209
207
202
188
207
209
200
186
200
208
197
180
198
206
191
177
192
206
187
173
188
201
183
168
185
197
178
163
179
191
173
157
172
185
168
151
167
180
162
144
161
174
154
139
154
167
150
133
148
162
142
129
142
158
140
122
138
153
136
121
134
151
131
115
131
145
129
113
128
144
127
111
124
142
128
111
128
141
128
111
128
143
127
113
130
145
131
113
130
146
128
115
129
148
135
115
133
151
135
121
134
154
139
122
136
153
140
123
137
156
140
124
140
158
143
126
140
159
143
127
140
158
142
123
140
157
142
123
136
155
139
121
134
152
138
120
131
150
133
115
128
147
132
112
125
144
128
110
121
140
123
107
118
138
122
103
114
134
119
98
111
129
114
96
106
127
111
92
104
122
107
90
101
119
104
87
97
118
103
82
94
114
100
80
91
111
98
79
88
108
95
75
85
107
94
74
84
105
92
70
81
103
89
70
79
100
88
67
77
97
86
65
75
96
85
65
74
94
83
64
72
94
83
64
73
92
83
61
73
94
83
63
70
95
85
62
72
94
85
63
72
95
83
63
71
94
84
63
72
93
85
63
73
94
86
62
72
94
85
63
72
95
84
62
71
94
85
62
68
94
83
61
68
93
86
61
67
94
82
62
68
91
83
62
68
91
84
62
66
91
83
62
69
91
85
63
68
92
87
64
70
96
91
69
76
99
95
77
81
108
103
85
91
116
113
95
102
126
123
107
114
141
137
119
128
155
152
134
141
168
166
146
152
180
177
161
168
194
192
172
180
201
199
184
189
207
207
191
195
207
207
198
200
207
209
200
202
208
208
203
204
208
207
200
204
205
207
200
200
207
207
198
198
208
207
193
194
207
207
187
187
207
206
182
181
204
200
177
176
200
194
170
169
192
188
164
164
185
182
158
158
182
178
155
153
176
171
147
147
168
164
144
140
163
157
135
132
156
153
131
130
153
150
125
124
148
144
123
120
145
143
121
118
143
142
120
118
141
140
117
117
140
139
118
116
139
140
119
118
143
141
121
119
143
144
122
122
144
146
123
122
146
147
126
125
149
151
129
127
150
150
130
129
153
154
131
128
153
153
132
127
151
153
133
129
152
155
133
127
150
152
129
124
148
150
129
122
149
150
125
122
144
145
123
116
143
144
122
116
138
139
116
111
135
136
116
110
132
136
110
105
127
129
108
102
126
127
103
96
120
123
101
95
116
120
97
92
116
118
95
87
111
115
90
86
108
112
90
82
105
107
87
80
101
107
84
77
99
104
82
73
98
102
80
73
93
99
79
72
94
99
77
69
92
96
74
68
90
96
73
66
91
94
71
64
89
95
72
65
87
91
73
64
86
93
72
63
85
92
72
64
84
91
71
62
85
93
70
64
85
94
72
63
85
92
73
64
85
93
72
62
85
94
71
64
84
92
72
64
81
93
72
61
84
91
71
61
80
91
69
60
81
90
70
60
81
91
68
57
78
89
68
56
80
89
69
58
77
89
70
59
79
90
70
57
82
92
72
62
83
95
78
69
89
103
84
75
99
113
94
85
109
124
105
99
122
136
120
112
135
152
135
128
152
168
151
143
167
183
168
160
183
199
182
173
195
206
195
186
207
208
206
195
206
208
209
203
207
208
207
208
207
209
207
204
207
206
206
207
208
207
208
208
207
207
208
207
208
207
208
207
207
206
207
200
208
209
207
195
207
208
204
188
206
207
198
183
200
209
192
177
192
205
187
171
188
199
181
164
180
194
175
160
176
188
170
153
167
182
161
146
160
174
159
140
157
171
153
138
151
166
147
132
148
161
145
130
144
160
144
125
144
159
141
125
142
156
141
125
140
157
140
123
139
156
139
123
140
157
141
126
140
157
141
125
139
160
141
127
144
160
145
127
145
160
147
129
144
163
147
129
145
163
147
130
145
163
147
127
144
161
147
129
144
163
144
128
142
159
144
125
140
158
141
125
138
156
138
121
135
153
137
119
131
149
134
115
127
147
129
110
123
142
126
108
120
138
124
104
118
136
120
103
110
131
116
98
111
128
114
95
107
123
110
92
102
124
107
87
101
118
104
85
95
114
101
82
94
112
98
77
89
110
93
75
87
106
92
72
84
104
88
70
82
101
88
69
78
99
87
66
77
98
84
63
74
95
84
64
73
96
82
62
73
93
81
63
72
93
83
60
73
93
79
61
69
91
81
59
70
93
80
59
69
90
78
59
68
89
81
59
67
90
78
59
66
90
78
58
67
88
79
58
67
88
80
57
69
89
79
59
68
91
79
60
66
90
79
59
66
89
80
59
67
88
79
57
65
87
78
55
64
85
79
56
65
89
78
56
65
87
78
56
62
87
78
56
65
88
79
56
64
88
82
61
67
93
83
65
71
98
92
74
79
105
100
81
90
115
111
93
102
129
126
107
117
143
139
121
133
159
157
137
147
173
171
155
164
191
185
168
179
205
201
182
189
208
208
195
202
207
208
203
208
207
209
209
206
208
208
207
206
206
208
209
207
207
208
207
208
207
207
207
207
207
210
208
206
208
208
207
205
207
208
202
203
207
208
192
196
206
208
190
193
208
208
184
185
205
200
178
179
202
194
172
173
194
190
168
169
191
185
163
161
185
179
158
156
178
172
151
150
171
168
145
146
166
162
141
141
163
160
137
139
160
157
135
134
158
153
134
131
154
150
129
129
153
151
130
128
155
149
129
129
154
153
131
131
154
151
130
130
153
152
129
130
156
155
133
131
155
156
135
134
156
156
133
132
157
155
135
135
158
157
135
133
157
156
133
133
155
156
134
132
153
154
132
129
151
151
128
124
149
149
126
122
146
145
124
120
143
143
120
118
141
141
118
114
136
137
114
109
134
132
110
107
129
129
106
102
123
125
102
98
123
123
101
95
117
119
96
90
112
116
93
89
112
112
91
86
108
111
89
82
105
107
84
79
104
106
84
78
102
103
79
74
98
101
78
74
97
99
77
70
93
97
76
68
92
94
73
67
90
94
72
65
88
92
71
63
87
90
68
64
84
90
69
61
86
90
71
61
83
90
70
60
85
89
70
61
84
90
66
60
83
89
67
58
85
89
67
61
82
89
67
60
81
88
67
59
82
89
68
60
81
89
67
60
83
87
68
61
82
88
67
61
81
89
69
60
84
89
70
59
81
91
70
58
81
88
67
61
82
89
70
59
78
88
68
58
80
88
67
58
77
85
64
56
79
85
65
56
76
85
64
54
76
85
62
55
75
85
62
57
75
85
65
56
76
86
66
58
78
92
74
63
89
98
81
70
96
110
91
82
105
120
104
95
118
135
117
111
134
149
132
126
150
167
151
142
166
183
165
158
181
196
180
172
196
205
192
184
207
207
205
197
208
207
208
203
207
207
208
207
207
207
207
207
206
207
207
209
206
207
205
207
206
208
208
208
208
208
207
205
208
206
207
199
207
209
208
193
208
207
201
187
204
208
194
182
198
209
191
176
194
203
184
171
188
202
181
165
183
193
174
160
176
188
169
156
173
183
164
150
169
180
160
144
160
175
154
141
160
171
152
138
153
168
149
136
152
165
147
132
150
163
144
130
147
163
144
131
149
162
144
129
146
162
144
130
147
162
145
130
146
164
145
132
147
165
147
133
149
166
150
134
150
166
148
132
149
166
149
135
150
167
149
133
150
164
148
132
149
164
148
131
147
163
146
129
143
160
143
127
142
159
144
126
139
155
139
123
137
153
138
120
135
149
134
114
128
145
131
111
125
143
126
107
122
139
121
103
118
136
118
101
113
131
115
96
110
126
109
92
106
122
107
89
100
120
104
85
98
115
102
80
95
113
97
78
91
110
95
77
90
105
90
74
86
106
90
71
83
104
88
69
80
99
86
67
79
98
85
63
76
96
84
64
75
94
80
64
74
94
80
62
73
92
78
59
73
92
79
59
70
91
78
58
71
88
76
59
70
89
75
59
69
88
76
57
67
89
77
56
67
89
76
56
69
88
76
56
67
90
77
57
68
90
77
55
67
88
76
58
69
88
77
58
67
89
77
58
68
89
76
58
67
90
80
57
66
89
78
56
66
90
77
56
65
86
75
56
64
85
76
53
61
86
73
52
60
83
73
52
61
82
71
53
60
81
71
51
59
83
72
52
61
85
75
55
65
89
80
60
71
96
89
68
78
104
97
80
90
115
108
93
104
130
124
105
116
145
138
125
135
158
154
140
150
175
172
155
164
191
185
171
179
204
200
181
190
206
208
191
201
204
208
199
206
207
207
204
209
206
208
208
209
206
207
207
207
208
206
206
208
209
208
203
206
208
207
202
203
208
207
195
198
208
207
191
194
207
207
185
187
207
202
180
182
203
196
175
176
198
190
168
171
193
184
162
165
184
179
154
157
179
174
151
153
174
169
144
148
167
161
139
141
164
157
137
138
159
154
131
135
158
153
128
131
155
150
126
129
154
148
128
130
152
147
125
126
151
150
126
128
152
148
126
127
152
148
127
129
154
151
129
131
154
152
130
132
157
154
129
132
156
155
132
133
158
154
135
135
160
156
134
133
159
154
135
134
159
154
132
132
156
153
130
129
154
151
129
129
151
150
125
127
149
147
126
124
147
145
121
120
143
140
118
117
138
137
114
112
136
134
111
111
130
130
107
103
128
126
103
101
124
121
103
97
119
120
97
95
116
116
94
91
113
112
91
87
110
109
88
84
106
107
84
79
104
104
81
76
102
100
79
76
98
97
78
72
96
95
75
70
93
94
73
67
92
92
71
67
87
91
70
66
87
91
70
63
88
90
66
63
86
89
68
62
87
88
66
61
86
87
66
60
85
87
65
60
82
86
64
59
84
87
64
58
84
86
64
59
82
84
65
59
81
86
66
59
82
87
63
58
83
87
64
57
83
89
64
57
83
86
63
58
83
86
64
58
83
86
65
56
80
85
64
58
80
83
63
55
78
82
62
53
79
81
58
53
77
81
57
53
76
80
58
51
74
78
59
51
72
79
58
51
75
81
60
53
78
88
65
59
83
92
72
66
92
101
84
78
102
114
94
88
117
125
109
104
130
140
123
118
144
155
137
134
158
169
153
147
173
184
166
162
185
196
179
172
199
208
190
184
206
207
198
190
211
207
203
195
208
207
207
199
208
208
206
197
207
208
208
196
207
207
204
195
207
208
200
190
208
207
199
187
204
206
192
180
201
206
187
178
194
202
181
171
188
196
176
165
181
190
169
157
176
184
165
150
174
181
158
147
163
173
153
140
158
167
145
133
154
162
141
129
148
157
137
124
144
153
135
121
139
151
131
117
136
148
126
117
135
146
126
115
133
147
126
114
134
145
126
114
133
147
128
115
136
147
129
116
135
150
131
120
139
151
135
122
141
154
136
124
143
156
138
124
145
158
139
127
145
160
141
129
146
161
143
129
145
160
141
128
146
158
142
126
144
157
138
123
142
154
137
122
137
152
131
119
133
150
129
115
132
144
128
113
130
143
124
108
125
138
120
105
121
136
119
101
114
131
112
98
112
126
108
92
109
125
106
89
104
121
102
84
103
115
100
82
98
114
95
80
93
109
92
76
92
108
90
74
88
105
88
70
85
103
84
68
84
100
82
66
82
97
80
63
80
97
79
60
77
95
79
60
75
91
75
58
76
92
75
58
75
92
73
58
74
92
74
58
73
89
74
59
72
89
74
57
73
91
76
56
72
92
76
58
74
92
77
58
71
91
77
59
73
90
76
57
72
91
74
55
73
90
74
55
70
88
73
55
68
87
71
55
65
86
71
55
66
86
71
53
66
85
70
52
66
86
69
52
66
86
72
54
68
89
74
57
70
90
79
62
77
97
85
69
84
106
95
80
94
118
107
91
104
129
119
105
121
143
136
119
135
158
148
135
148
173
164
146
161
184
178
161
174
197
186
172
184
208
196
180
194
208
204
188
200
205
206
192
205
210
207
195
204
206
207
194
204
207
207
192
203
207
206
191
200
206
206
186
196
204
205
183
190
206
199
178
186
205
193
171
179
197
187
163
172
193
179
160
167
186
177
154
162
182
167
147
156
174
162
140
148
167
155
135
141
164
149
129
136
157
147
124
130
152
141
119
127
148
137
116
121
142
132
113
117
140
131
110
118
139
130
110
117
139
131
110
117
140
131
112
118
142
132
113
120
142
136
116
122
147
137
118
124
148
140
121
126
150
143
123
130
153
144
125
132
154
146
127
131
154
146
126
134
154
147
127
133
156
148
126
133
154
145
124
128
151
144
121
127
151
143
122
124
146
141
120
122
143
136
113
118
140
135
111
113
138
128
106
110
132
125
103
108
131
123
101
103
125
120
98
101
122
115
94
97
122
113
90
93
116
111
88
91
113
106
84
87
109
104
81
85
108
100
77
80
105
98
76
79
102
96
76
75
99
94
71
74
100
93
69
73
96
92
68
68
93
89
67
71
93
88
67
67
91
87
66
65
90
87
65
66
91
85
65
65
88
85
65
65
90
88
66
65
88
86
64
65
91
86
65
66
90
87
66
67
91
88
68
66
92
88
68
67
90
87
65
67
91
87
66
65
89
88
64
63
89
87
65
63
87
86
64
61
86
85
65
61
86
85
63
63
86
85
64
62
87
86
65
62
87
87
65
63
88
89
68
67
92
92
74
75
99
102
83
81
109
112
92
93
120
123
105
106
134
138
119
123
151
155
137
138
168
170
153
154
181
186
169
168
196
198
184
183
207
207
194
194
208
209
204
204
207
207
208
208
207
205
208
207
207
208
207
207
207
208
209
207
208
205
208
208
207
208
205
207
206
207
207
208
207
207
209
205
208
207
203
199
208
207
199
194
209
208
193
188
207
207
189
179
200
202
179
172
194
198
173
166
189
190
167
159
182
184
162
155
176
178
155
148
170
174
151
144
164
168
145
137
160
163
143
133
157
160
139
132
155
157
139
129
151
157
136
128
150
157
136
129
152
157
138
131
152
158
137
131
153
159
139
132
154
160
139
133
153
162
140
133
155
162
142
133
156
162
142
134
155
164
144
135
155
162
143
135
155
164
144
134
156
161
140
134
155
162
141
131
153
160
139
129
150
156
136
126
146
153
132
123
145
152
130
119
140
146
126
115
134
141
120
110
131
141
118
107
126
134
113
104
123
132
110
96
119
125
105
94
115
124
102
90
110
119
97
88
107
115
94
84
104
114
93
80
99
110
89
78
98
105
86
75
94
103
82
72
92
101
82
70
91
101
80
69
87
98
78
67
88
95
76
67
84
95
75
65
83
95
74
62
82
94
74
61
80
93
74
61
81
92
70
61
79
90
71
58
77
90
71
59
77
87
71
57
76
88
68
57
76
87
69
55
75
91
69
57
76
89
69
58
76
89
70
56
78
88
70
58
76
88
71
57
75
91
70
56
76
89
70
57
75
88
71
55
73
89
68
55
74
86
67
55
71
83
68
53
72
84
66
53
71
86
66
55
73
85
69
54
73
89
71
57
77
93
77
62
84
101
86
72
94
112
99
84
106
123
109
100
120
139
126
113
134
156
143
133
153
173
160
148
170
189
176
164
183
203
191
179
200
208
203
192
206
208
208
203
207
206
206
208
208
207
206
206
207
206
208
208
208
208
206
208
207
207
209
208
207
205
206
208
208
208
208
207
208
208
207
203
208
207
208
198
208
208
209
192
204
207
202
184
199
206
198
180
192
209
192
176
187
201
185
167
179
198
180
162
174
191
175
156
169
186
169
151
162
178
164
146
157
175
160
141
154
172
155
137
150
168
153
134
149
165
150
133
145
164
149
130
145
161
147
131
142
160
147
130
142
161
147
129
142
161
149
132
144
165
148
132
145
164
151
133
147
165
152
135
145
165
152
132
145
164
153
134
144
165
152
132
145
165
153
133
143
163
149
130
143
161
147
128
140
159
144
125
135
155
142
122
132
153
140
119
130
150
138
117
127
145
133
113
122
142
129
111
119
138
126
105
114
132
120
99
110
130
117
96
107
124
111
92
102
121
109
87
96
118
106
84
92
113
102
84
92
108
97
78
86
107
95
73
84
103
93
72
80
101
89
71
77
97
85
68
76
96
83
65
71
95
83
62
70
93
82
63
69
90
79
60
69
89
78
59
66
88
78
56
64
85
76
58
64
84
76
55
62
84
76
54
60
83
73
53
59
83
74
53
60
82
71
54
60
82
74
51
58
81
72
52
58
83
73
53
59
82
73
53
60
82
75
54
60
82
75
55
60
83
74
53
59
82
75
55
59
83
75
53
60
82
76
54
57
80
73
50
58
80
72
51
55
78
71
51
54
77
71
50
52
77
70
49
51
74
70
49
50
75
71
48
52
76
70
49
54
79
74
54
58
84
80
59
65
90
89
69
75
102
100
81
89
115
113
95
103
130
129
111
120
149
144
130
137
165
164
146
155
182
181
164
169
196
196
176
184
208
208
192
197
207
207
200
202
207
206
207
207
207
208
206
208
208
208
208
207
208
208
207
208
209
208
207
207
207
207
207
209
209
206
206
206
205
206
202
201
207
205
195
196
208
208
191
192
207
209
185
186
208
202
178
179
200
197
173
174
197
191
170
168
189
186
163
163
184
179
156
156
176
175
151
151
171
168
145
142
164
163
142
139
162
158
136
135
160
155
134
132
153
150
130
130
152
150
130
127
151
150
130
128
149
150
129
128
152
149
129
129
151
152
130
130
152
152
132
130
155
154
133
132
154
155
133
131
155
155
135
131
155
156
134
132
154
156
135
130
155
155
134
131
153
155
132
128
153
154
130
126
150
150
128
124
146
147
124
122
144
145
124
119
142
142
122
115
139
138
117
113
135
137
114
108
131
132
106
102
124
126
103
99
121
123
100
97
117
120
97
92
115
115
94
88
110
112
91
84
106
108
86
82
103
107
83
76
99
103
80
75
96
98
76
72
93
97
75
67
91
95
73
67
89
95
73
65
88
90
69
62
85
89
68
62
84
87
67
60
81
88
64
58
80
86
64
57
80
84
63
58
80
83
63
56
79
84
62
54
77
84
63
55
77
82
62
55
77
81
60
56
78
83
61
56
76
83
62
53
77
82
63
53
75
83
62
54
75
83
62
54
78
82
61
53
75
84
64
53
75
83
63
54
77
84
64
55
76
83
62
55
74
83
63
53
75
84
61
53
75
82
60
52
73
81
59
51
70
80
60
50
71
77
58
49
69
78
56
47
68
77
58
45
66
79
55
44
65
75
54
43
69
76
55
46
67
78
59
48
74
84
64
57
78
92
74
65
89
101
85
76
100
116
99
93
117
130
117
109
132
148
132
125
151
165
151
144
168
183
168
160
184
200
184
177
200
208
198
190
206
206
208
201
206
206
206
208
206
208
206
206
207
208
207
207
207
207
207
207
207
209
208
205
206
206
207
207
207
207
206
206
206
208
207
200
207
207
208
195
208
206
202
189
206
206
197
184
200
208
192
176
193
206
185
169
187
197
177
162
179
191
171
157
172
184
166
153
167
179
158
145
162
175
154
140
158
169
150
135
151
164
145
133
149
162
144
130
146
159
139
126
143
156
140
125
144
155
140
124
140
156
137
126
141
156
138
125
142
156
140
127
142
159
141
128
145
161
143
127
143
160
143
129
145
160
145
130
148
162
145
131
147
162
146
130
147
161
144
131
144
161
143
126
142
158
142
125
141
156
139
123
138
154
137
121
137
152
135
117
131
148
131
115
130
144
127
112
126
140
125
109
121
137
120
103
118
133
117
100
114
128
112
93
109
124
109
90
104
121
105
88
101
118
102
84
96
112
98
81
92
110
93
74
90
107
92
72
85
104
87
70
84
100
84
69
81
98
82
64
78
96
80
63
73
93
78
60
74
93
76
60
74
91
77
58
71
89
76
56
68
89
72
57
70
85
71
56
68
86
72
54
68
86
71
54
64
86
72
52
64
84
71
52
62
84
72
51
65
84
71
51
64
84
72
51
62
84
71
51
64
81
70
51
63
85
70
51
63
84
71
51
63
84
72
51
63
84
73
53
62
85
73
50
64
84
73
53
64
84
72
53
62
85
73
52
64
84
72
52
63
84
72
51
60
82
71
49
59
81
71
49
58
82
68
47
58
79
66
48
56
77
65
46
57
76
65
45
57
76
67
49
57
80
70
53
65
86
78
60
72
96
88
70
83
106
99
84
96
123
116
100
112
139
133
117
130
154
149
135
146
171
168
149
163
188
184
167
179
204
198
181
194
208
210
194
204
207
208
202
206
207
207
209
208
207
207
206
208
207
206
208
208
208
208
207
208
206
205
209
205
208
208
208
207
208
208
205
208
208
208
199
204
207
209
193
198
207
208
185
192
208
202
180
185
204
196
173
178
196
191
166
171
191
183
160
164
185
177
153
156
180
170
145
149
169
163
140
141
166
155
133
138
160
153
129
134
156
148
127
130
150
146
122
129
149
144
122
126
149
141
122
126
149
143
122
124
149
143
124
127
150
144
123
127
151
146
127
131
153
149
128
132
154
150
128
131
154
151
131
134
157
151
132
133
159
153
133
133
158
152
130
134
156
151
130
133
155
151
130
130
154
148
127
130
152
147
125
126
149
145
122
125
147
142
120
120
142
138
116
118
140
135
114
115
138
132
109
111
132
127
107
106
130
126
102
102
125
120
100
100
123
119
96
96
118
115
93
93
116
112
91
89
111
106
85
84
107
104
81
81
103
100
79
78
101
98
74
72
97
95
74
73
92
91
71
69
91
90
69
67
88
89
68
64
87
86
63
63
86
87
63
63
85
83
64
61
84
82
62
62
83
83
59
60
83
82
60
57
83
83
60
59
81
79
62
58
82
83
61
59
80
82
62
58
81
82
61
57
81
84
60
57
81
84
61
56
82
83
61
58
82
82
60
57
81
83
62
59
81
83
62
57
82
82
60
58
79
82
61
55
80
83
59
55
80
79
60
55
77
80
57
53
77
78
57
51
74
78
54
51
73
76
56
50
72
75
55
49
71
77
55
49
73
77
56
51
76
80
58
56
80
83
66
62
87
92
76
72
97
105
86
82
109
115
100
97
123
133
115
112
140
148
131
130
158
168
151
148
173
183
165
163
187
198
181
177
205
207
193
191
208
208
203
200
209
207
206
205
210
209
208
208
208
206
206
208
207
207
206
207
209
208
208
208
206
207
207
206
208
206
205
205
205
207
208
196
208
207
201
190
207
206
192
184
203
208
187
176
196
201
180
170
188
193
173
162
181
186
164
152
173
179
159
147
167
172
151
140
160
165
142
132
152
159
137
126
146
153
134
122
142
148
129
119
140
146
127
115
136
143
121
111
133
140
122
112
132
141
120
112
132
142
122
115
132
143
123
115
135
145
126
116
139
148
129
120
140
150
133
123
142
154
135
126
147
158
138
129
149
157
140
129
147
159
141
130
149
160
141
128
149
159
140
129
147
158
139
127
146
157
139
125
145
155
134
122
140
150
132
119
136
150
129
117
136
146
126
112
131
143
122
110
125
139
118
105
124
134
114
101
116
128
109
95
113
122
104
91
109
121
101
87
106
116
99
84
102
112
95
81
97
111
91
77
95
107
89
75
91
104
86
70
90
101
84
69
86
99
81
67
83
96
78
62
81
95
74
62
77
92
74
62
77
90
73
58
76
91
71
58
75
89
70
55
74
88
71
56
72
88
70
55
72
87
69
56
72
87
72
57
71
88
69
55
75
89
71
56
73
89
72
57
73
88
72
56
75
90
72
56
74
89
73
58
74
92
73
57
73
88
74
56
71
87
72
57
71
86
72
55
69
87
72
56
68
86
70
53
69
86
69
52
68
85
67
52
67
84
67
51
66
85
67
51
67
85
69
53
69
88
71
57
74
92
80
65
80
99
87
74
89
110
97
85
103
125
111
99
118
139
127
114
131
155
142
129
150
171
159
148
165
187
176
164
183
203
191
177
193
206
206
191
204
207
207
200
207
206
207
208
208
208
207
206
208
206
208
208
208
207
207
206
209
207
207
208
208
208
206
209
207
208
206
204
208
209
207
200
208
208
207
194
202
206
204
187
194
207
200
180
189
206
192
172
183
199
185
164
174
193
179
158
166
184
169
150
161
179
165
143
152
169
154
135
142
161
149
128
138
158
144
125
133
153
137
119
127
146
133
113
126
145
132
111
122
142
131
111
121
141
128
109
122
143
130
111
123
143
132
115
124
146
134
117
127
149
137
119
130
151
142
122
132
154
145
127
136
157
146
127
139
160
149
131
140
161
151
131
141
161
152
133
140
163
150
130
138
159
152
132
139
160
147
128
136
158
148
126
133
153
143
125
131
150
140
120
127
147
136
116
124
144
134
111
118
139
131
108
115
135
125
103
110
132
121
100
106
126
116
95
102
123
114
90
96
118
109
86
93
114
103
85
87
109
101
81
85
107
97
77
83
103
94
72
79
101
90
69
76
98
90
67
75
95
86
65
71
94
85
62
69
91
82
61
68
91
81
60
66
89
79
59
65
86
81
60
62
88
81
60
62
87
80
58
63
87
80
57
62
85
81
59
62
86
80
58
64
87
82
58
65
88
81
60
64
87
81
61
62
86
83
61
63
87
81
60
65
87
81
59
62
85
83
61
62
86
80
59
63
84
78
56
60
83
79
58
60
84
79
57
58
82
78
56
60
82
77
58
60
83
79
60
60
86
84
63
67
92
90
70
74
100
100
81
86
112
111
92
96
125
126
108
112
142
140
123
128
155
158
141
147
176
175
160
163
190
192
175
181
206
207
191
195
208
207
203
206
207
207
207
208
207
207
208
207
206
208
207
208
206
207
206
207
207
207
207
208
208
208
208
207
207
208
209
207
208
206
207
208
208
207
208
207
206
207
207
204
205
209
202
200
208
207
192
191
209
206
186
183
202
202
179
176
199
196
172
167
191
188
166
162
181
180
157
155
176
172
151
148
168
169
145
141
163
162
141
135
158
157
135
130
152
153
131
126
150
150
129
126
148
149
127
123
147
148
126
123
146
147
126
123
146
148
128
125
147
149
130
127
149
153
133
130
155
155
134
132
155
158
138
135
159
159
138
134
158
161
141
137
160
162
142
136
159
162
141
136
159
163
140
137
159
161
141
135
157
160
139
132
153
155
135
128
150
152
131
124
146
150
126
120
142
145
122
116
137
141
118
113
134
137
115
111
129
133
110
103
123
127
107
98
119
124
102
96
115
119
98
90
110
114
93
85
107
110
89
80
103
109
85
79
100
104
83
74
96
99
80
71
92
97
76
67
89
95
74
64
86
93
72
64
85
88
69
62
83
88
67
62
81
87
67
59
80
86
63
57
79
84
64
57
79
83
64
56
77
83
63
55
76
85
65
55
75
85
63
54
74
83
65
53
75
84
61
54
75
83
64
55
76
82
61
56
75
83
63
53
76
86
64
55
74
84
64
53
76
83
64
56
75
85
65
53
75
85
64
54
73
86
65
52
74
83
64
52
71
81
62
51
72
81
60
51
72
78
59
49
71
81
59
49
70
80
60
49
71
82
62
50
74
86
69
58
79
92
75
66
89
104
86
79
102
116
101
93
118
134
119
111
136
151
135
129
153
169
155
149
173
188
175
166
191
205
192
185
209
208
209
200
206
206
207
205
205
208
207
209
209
206
208
207
206
208
206
206
207
206
207
208
209
208
209
207
206
207
205
206
207
208
208
209
207
206
208
207
207
208
209
207
207
207
207
208
208
206
205
201
208
208
207
197
207
207
203
187
202
206
196
181
196
206
189
174
188
203
183
169
182
197
177
160
177
189
169
155
170
184
166
148
164
177
160
143
159
172
155
139
154
169
152
136
152
167
148
133
148
163
144
132
146
162
146
131
148
162
145
131
147
161
145
130
148
161
147
130
148
165
147
134
150
166
151
134
150
166
151
137
152
167
150
137
153
167
150
136
150
168
152
136
151
166
150
134
148
164
149
134
150
163
148
131
144
160
144
128
143
157
142
124
138
153
137
122
135
151
136
118
131
146
129
111
127
142
126
108
123
138
122
106
116
133
118
99
112
129
112
94
107
124
108
88
103
119
104
86
98
113
97
82
93
112
97
76
90
106
90
74
86
104
87
70
82
98
83
66
78
97
80
63
74
93
80
61
72
89
74
56
70
87
74
55
66
85
70
54
67
82
69
51
64
81
67
52
62
80
66
49
62
79
66
49
62
77
65
48
57
79
66
46
57
78
65
46
58
76
65
46
58
76
62
47
57
76
64
45
58
77
64
47
57
75
63
45
57
75
63
47
56
77
66
47
56
78
65
46
57
78
65
47
57
77
65
47
56
77
66
47
58
77
65
46
54
76
66
44
54
74
63
45
53
74
62
43
52
73
62
41
50
70
58
40
49
71
60
39
49
71
60
39
50
69
58
40
48
69
61
40
52
75
67
46
61
82
74
56
67
91
85
68
82
108
100
84
96
122
116
101
116
141
137
122
134
160
155
140
154
181
176
161
173
199
192
179
190
207
208
193
206
207
207
205
207
207
206
208
205
206
209
208
208
208
208
206
205
208
207
208
207
207
208
209
207
207
207
209
208
207
208
204
206
208
206
208
208
209
207
204
207
208
208
200
204
208
208
192
196
205
207
186
187
208
201
181
185
203
195
172
176
199
189
168
170
191
182
159
164
183
175
154
156
178
171
147
151
173
165
143
144
168
159
140
142
163
156
135
139
159
153
132
134
156
151
130
133
156
148
128
132
154
149
128
133
156
148
128
129
155
151
128
134
157
152
130
134
159
153
133
134
157
154
132
135
159
153
132
135
158
155
133
137
159
155
134
137
162
154
135
137
158
151
131
133
156
152
130
133
155
150
129
129
151
144
125
128
150
146
124
124
146
140
119
118
141
137
114
116
137
134
112
110
134
128
109
107
128
123
102
100
123
121
97
98
120
116
94
93
116
114
90
89
110
108
85
84
106
103
81
80
103
98
76
76
100
95
76
73
96
93
70
69
90
86
67
65
89
86
62
61
86
83
60
60
84
81
58
56
81
78
56
54
76
76
52
51
75
75
52
50
74
73
52
49
71
71
50
47
71
71
49
45
68
69
48
46
70
70
47
44
68
67
48
45
68
68
46
42
67
67
47
45
67
67
44
43
66
67
48
45
65
67
46
45
67
68
48
44
69
70
47
43
66
68
48
45
68
69
49
44
68
71
49
47
68
69
49
45
67
70
48
45
68
70
48
43
65
66
46
41
64
65
44
41
63
66
44
40
61
66
45
38
61
64
43
39
62
63
43
40
62
66
45
42
64
67
48
46
70
74
56
52
76
81
64
63
88
95
76
76
101
110
93
91
116
127
110
108
136
145
128
126
154
162
146
145
171
181
164
162
189
196
179
178
201
207
192
190
207
208
204
203
208
209
208
208
207
207
208
207
208
208
206
206
206
208
207
208
206
207
206
207
208
207
207
207
206
208
208
204
209
207
208
198
206
206
200
193
207
208
195
185
205
207
187
179
199
204
184
174
193
196
176
165
187
189
169
160
178
184
163
154
173
179
159
146
166
174
150
142
161
167
146
137
156
163
141
132
151
157
140
128
149
156
135
123
145
151
131
123
143
151
131
121
142
149
129
120
140
148
128
120
141
151
132
120
141
151
131
122
143
151
132
122
142
152
133
125
145
152
135
124
145
155
134
125
145
155
136
125
145
157
137
126
145
154
135
124
144
153
134
124
143
151
133
120
141
149
132
118
139
146
129
118
136
143
125
111
130
140
119
110
129
137
118
104
123
133
113
102
118
128
110
96
116
124
105
92
112
120
101
91
106
116
97
82
101
113
91
80
98
111
92
78
94
105
84
73
91
101
83
69
87
97
79
66
82
93
75
64
81
91
73
60
77
91
72
58
75
87
68
53
70
86
67
53
70
84
67
50
68
81
63
50
67
81
62
48
68
79
63
49
65
80
61
47
67
78
62
47
64
79
61
46
64
78
62
46
64
78
60
44
65
78
61
47
64
77
60
46
63
78
61
46
65
77
61
46
63
80
62
47
66
77
62
47
64
79
62
47
64
80
63
46
65
79
62
48
65
79
62
49
65
80
63
48
65
81
65
47
64
82
64
48
64
80
65
48
64
80
63
48
63
79
62
46
63
77
64
46
60
78
60
45
61
74
59
45
60
76
59
42
58
75
58
43
59
74
58
43
57
76
59
43
59
75
60
44
61
81
66
51
67
85
73
59
77
95
82
71
90
109
97
85
102
124
111
101
120
142
130
119
138
159
148
137
154
178
166
154
172
193
184
171
189
206
198
187
201
209
208
198
207
207
206
207
207
207
207
208
208
205
207
209
207
207
205
208
208
208
207
206
206
208
207
205
208
206
207
208
207
209
207
206
206
205
207
199
208
207
208
196
205
208
207
185
195
206
199
181
190
208
192
175
184
202
186
167
178
196
180
161
171
188
175
154
165
183
168
150
159
176
163
143
153
171
155
137
148
168
153
133
144
163
150
130
140
159
146
128
139
157
144
127
137
158
144
125
135
156
145
125
137
156
146
126
137
157
145
128
136
156
146
129
140
160
147
129
140
162
149
131
142
163
151
133
145
167
155
136
145
165
154
133
144
165
154
134
143
165
152
133
143
164
155
134
143
162
150
133
140
159
149
129
137
157
146
127
134
153
142
122
131
151
141
119
129
147
136
116
123
145
134
114
119
141
129
108
115
135
125
105
110
130
120
100
107
127
117
94
102
122
112
92
99
119
110
87
92
115
103
84
90
111
102
79
87
107
97
77
83
104
95
74
82
104
93
72
77
99
92
70
75
98
87
69
73
94
87
66
71
95
85
63
70
92
84
63
68
89
81
63
68
89
81
61
68
87
80
60
64
90
81
59
65
88
80
60
65
87
78
60
64
86
79
59
63
87
79
60
63
86
80
57
63
87
78
58
62
87
80
58
62
86
78
60
62
86
78
58
63
86
80
57
61
87
80
58
64
84
80
59
63
86
79
57
62
85
81
58
60
86
80
59
63
84
81
59
62
85
80
59
61
85
79
59
62
84
80
60
59
83
82
56
59
84
78
57
58
81
78
54
56
81
74
53
55
80
74
52
53
77
75
51
53
79
73
50
54
76
75
52
53
78
73
54
55
79
76
57
58
86
85
62
66
95
92
73
78
103
104
85
90
118
118
101
105
133
133
117
121
149
152
135
138
166
169
152
156
185
187
169
175
200
202
185
188
208
208
198
201
207
209
207
208
208
207
206
208
207
207
205
208
208
208
208
207
209
208
206
209
209
206
209
207
208
209
207
205
209
208
207
208
207
207
208
207
206
206
206
201
205
206
200
196
206
207
193
188
206
207
186
182
204
202
180
175
198
196
173
168
190
187
165
160
182
182
158
155
178
175
153
150
172
171
148
143
164
164
144
138
161
161
139
134
156
158
135
131
155
155
133
129
151
153
131
128
153
154
132
130
152
154
131
129
152
155
132
129
151
155
135
130
155
156
136
132
156
158
138
133
158
160
139
137
159
164
141
140
161
162
142
138
161
163
142
138
160
161
141
136
158
161
139
136
157
162
137
134
156
158
137
130
153
154
134
127
149
151
130
126
145
149
127
121
144
146
123
117
137
142
121
113
135
138
117
109
131
132
113
105
128
130
109
100
120
125
104
97
118
122
102
92
114
119
97
90
112
115
95
86
107
112
89
83
104
109
86
79
103
107
85
80
99
104
82
75
95
100
81
73
95
99
79
72
91
98
76
68
91
97
76
67
88
96
74
67
87
93
73
66
86
93
72
63
85
92
71
65
83
91
71
64
84
93
72
62
82
91
70
64
83
91
70
62
85
91
71
63
86
92
71
62
84
91
72
62
85
92
72
62
83
91
71
63
84
91
73
61
83
92
73
63
84
92
73
61
83
92
73
62
84
93
71
63
84
93
74
64
83
92
73
61
82
91
72
61
85
92
73
62
81
92
71
60
81
89
70
60
80
89
69
59
81
89
68
56
77
86
67
57
76
86
67
56
75
85
65
55
76
86
65
54
77
87
67
57
79
89
70
60
82
93
73
66
86
99
83
71
93
108
93
84
107
121
105
96
117
132
119
111
133
151
133
128
150
164
150
142
168
182
167
160
183
197
183
173
197
207
197
188
206
207
206
197
208
208
207
206
205
206
207
207
207
207
207
207
207
207
207
207
208
208
207
207
208
207
208
207
206
208
205
205
208
207
206
202
206
207
207
197
207
208
205
189
206
208
196
183
200
206
193
177
193
203
185
169
185
197
179
162
181
192
172
156
173
183
168
150
166
179
159
144
158
170
153
137
152
164
147
131
147
161
142
127
144
159
140
126
141
154
137
123
138
153
136
120
136
151
133
119
135
150
134
120
137
151
137
120
137
153
136
123
137
152
137
122
140
154
139
125
141
159
140
127
145
161
144
130
146
161
146
131
146
163
147
132
146
162
146
130
147
162
145
130
147
163
145
129
144
160
142
126
142
157
142
123
140
156
139
122
136
152
135
118
132
147
134
116
131
146
131
112
126
142
125
108
123
140
121
106
118
134
118
101
114
130
114
96
111
127
112
94
107
122
107
88
104
121
103
85
101
119
100
83
96
113
99
81
92
112
94
76
89
108
92
77
89
105
90
73
87
104
87
69
84
100
87
69
81
97
85
67
80
97
83
65
78
96
83
65
78
96
82
64
75
94
82
64
76
94
79
60
76
95
78
62
75
93
80
63
74
94
81
63
72
91
81
62
72
92
80
62
74
93
79
62
75
92
79
60
73
93
80
61
72
92
80
62
71
93
80
62
72
94
79
61
73
93
80
61
71
93
81
63
72
92
80
60
70
91
79
59
71
92
79
59
71
90
77
59
68
89
75
57
68
89
75
57
68
88
77
55
65
86
74
54
64
87
74
54
65
86
73
55
66
88
78
60
70
93
82
64
76
101
90
74
84
108
100
81
96
119
113
95
109
134
127
110
124
149
143
127
139
165
158
142
156
181
174
156
171
197
189
173
184
206
201
183
198
208
207
195
204
207
208
200
208
208
207
206
206
207
208
209
208
206
207
206
207
207
207
204
207
208
207
203
206
206
208
200
206
207
207
193
200
207
207
191
192
206
202
181
189
208
196
175
180
200
193
169
176
195
184
163
168
190
179
157
162
183
170
149
155
175
165
142
148
168
159
136
141
160
153
129
136
157
149
126
130
153
142
119
127
148
138
116
121
143
135
115
121
143
133
113
117
140
134
113
120
140
136
114
121
144
137
115
121
143
139
117
124
146
139
120
125
150
145
125
130
155
147
126
130
154
150
129
133
157
149
130
135
159
152
130
135
157
152
131
136
159
151
130
135
157
151
128
132
156
148
127
131
153
145
126
128
152
144
119
124
147
142
118
120
143
135
113
116
138
132
111
111
135
128
105
108
130
124
103
104
127
119
97
98
120
116
93
97
118
113
91
92
114
108
86
89
112
105
85
83
107
102
82
82
106
100
77
80
102
98
77
75
100
94
72
76
99
95
72
71
96
89
68
70
93
89
68
67
90
86
64
66
90
88
64
67
89
86
64
63
87
84
63
63
86
84
61
63
88
83
61
64
85
84
62
63
86
82
62
61
87
83
62
62
85
83
63
63
88
83
63
62
86
86
62
62
85
85
64
62
84
84
62
63
87
84
61
61
86
85
64
63
86
83
62
60
84
83
61
62
85
83
61
60
85
82
60
60
83
83
61
58
81
81
57
57
82
81
60
58
81
82
59
60
84
84
64
61
86
89
67
70
94
97
77
77
102
106
86
88
112
119
99
100
127
131
113
112
141
146
127
127
155
160
142
141
169
173
156
157
182
188
170
168
195
201
182
180
206
207
192
192
207
207
198
197
206
206
204
201
209
207
209
203
209
209
207
204
207
208
205
199
208
208
204
199
208
208
200
196
208
207
195
190
208
207
189
182
202
204
181
176
197
199
176
169
191
192
171
164
184
184
161
156
179
178
155
147
169
172
148
141
163
165
142
134
157
160
137
128
150
152
131
123
145
149
125
119
140
142
121
115
137
139
118
111
133
138
114
109
130
136
115
108
130
134
116
109
131
138
117
109
134
140
119
115
135
143
121
116
139
146
126
118
142
148
127
122
147
152
134
126
149
155
135
128
150
158
136
128
152
157
135
129
155
159
138
129
152
157
140
131
152
160
137
128
151
156
136
129
150
153
134
124
147
153
130
123
142
148
129
119
140
146
125
116
137
144
121
110
133
139
117
108
128
135
114
104
127
131
110
100
120
128
106
95
116
122
103
92
115
121
100
89
109
118
96
86
106
113
94
83
103
109
90
77
100
107
86
77
97
107
86
76
94
104
84
71
90
101
79
69
90
99
78
68
89
98
78
67
89
97
77
66
87
95
77
64
84
97
76
65
86
95
75
64
85
93
75
66
84
96
75
64
86
95
76
65
85
96
78
67
85
96
77
66
86
95
77
63
83
95
76
64
85
93
75
63
84
95
74
62
83
92
74
62
81
95
74
59
80
93
73
61
82
92
74
60
81
92
74
62
81
96
77
63
85
96
78
67
87
103
85
73
95
110
92
81
103
119
104
94
115
131
117
108
130
145
132
124
146
160
145
136
160
176
162
152
176
191
176
167
187
206
189
180
200
207
200
190
208
208
208
199
206
209
208
205
207
206
208
206
205
207
206
207
205
207
206
207
206
207
207
206
208
207
207
204
207
207
207
199
206
207
208
196
206
207
202
187
203
207
196
183
196
207
190
175
189
203
184
168
185
195
177
162
176
189
171
155
172
185
165
149
163
176
158
141
158
170
153
136
151
166
147
131
144
159
140
125
140
155
137
121
137
150
133
117
134
149
132
118
132
148
132
116
132
149
132
115
133
149
132
119
134
152
134
120
135
154
137
122
139
154
139
126
140
158
142
129
144
160
146
131
148
164
148
133
149
166
150
134
148
167
150
134
148
168
149
133
148
163
149
133
148
163
147
132
144
161
144
127
140
159
143
126
138
156
140
124
135
152
136
119
132
148
132
115
127
145
127
111
126
141
125
106
119
137
119
100
114
130
116
98
110
127
110
93
105
123
109
88
101
117
104
86
99
116
101
82
95
112
97
79
91
110
94
76
90
108
93
74
85
104
90
72
84
100
86
69
81
100
86
68
80
98
85
67
79
96
84
65
77
96
82
64
76
94
80
62
74
93
81
60
73
93
82
62
73
92
82
62
75
94
81
64
73
96
80
63
74
95
79
61
73
94
81
61
74
95
82
62
74
94
81
60
75
93
80
62
72
93
78
58
72
92
78
61
70
89
78
59
72
90
79
61
69
90
79
58
70
90
80
62
72
94
83
63
74
98
86
68
80
101
94
77
90
114
107
89
102
128
118
102
115
141
133
118
131
156
149
134
148
172
166
150
163
188
182
165
178
204
196
181
195
207
208
193
206
206
207
205
207
205
208
207
208
207
208
207
208
208
206
208
206
207
208
207
207
208
207
208
207
208
208
207
207
206
208
206
206
205
206
206
206
207
207
202
208
208
208
195
201
206
208
189
195
208
204
181
188
207
197
177
183
202
191
173
177
195
186
163
168
189
178
158
164
182
172
151
157
179
167
146
151
170
160
140
147
166
158
137
141
164
156
134
140
160
152
130
136
157
149
128
135
157
149
128
136
155
149
128
134
156
149
128
132
157
150
129
136
158
149
131
136
158
150
133
136
157
151
132
136
160
154
133
137
161
153
134
139
163
155
135
139
161
154
133
138
161
154
132
137
159
152
131
135
156
150
130
132
156
148
128
132
152
146
124
127
151
142
121
123
147
141
119
122
143
135
113
115
137
130
110
110
134
126
106
108
129
123
101
102
124
119
97
98
121
115
94
94
115
109
90
91
113
108
84
87
109
102
81
83
105
100
78
79
101
96
74
75
97
94
72
75
96
91
70
72
93
90
69
70
92
87
66
69
89
85
64
68
88
86
64
67
89
86
63
64
86
83
61
64
87
84
63
63
85
81
61
61
86
82
61
59
83
80
60
60
83
81
59
59
83
79
57
57
81
79
59
59
83
80
58
57
80
78
57
59
83
79
59
58
83
79
58
57
81
78
57
56
82
81
57
59
83
78
58
58
82
79
58
56
80
77
56
55
78
78
56
54
78
77
55
53
76
74
53
51
75
74
54
52
75
74
51
50
73
74
52
50
72
73
52
51
76
77
56
54
78
82
61
60
87
87
69
72
98
102
82
84
111
113
98
100
128
133
117
118
145
151
132
136
163
167
150
150
179
183
166
168
196
200
183
185
209
207
197
196
205
207
206
206
207
207
208
206
206
207
208
208
209
209
207
209
205
206
206
208
208
208
208
207
207
206
207
208
205
206
207
208
207
207
208
204
209
208
204
198
207
208
199
192
209
206
191
184
203
205
186
180
202
202
178
173
195
197
174
167
188
191
171
162
184
184
162
156
176
178
157
151
173
173
153
145
167
172
147
141
164
167
145
139
160
164
143
134
158
159
140
133
155
160
138
131
155
159
137
131
155
158
138
132
154
155
136
130
152
156
134
130
151
156
135
129
151
155
136
130
150
157
137
131
151
156
135
131
149
156
137
130
150
158
137
130
152
156
138
130
149
155
133
127
147
154
133
125
146
151
131
123
143
149
127
119
139
145
124
116
136
142
122
111
133
139
117
109
130
135
115
105
126
131
109
101
120
128
104
97
116
123
101
91
112
120
99
89
110
114
93
83
105
113
91
80
99
106
86
75
96
104
82
72
92
99
80
69
89
95
73
66
87
95
74
64
85
91
71
60
80
89
71
60
80
86
67
58
77
86
66
55
76
86
66
56
76
84
64
55
74
85
64
52
74
81
61
52
73
82
62
51
70
82
61
50
69
80
59
50
70
78
59
47
68
78
59
47
68
78
58
46
67
75
57
46
66
76
57
45
66
76
59
48
67
76
58
45
67
79
59
47
66
79
59
46
65
79
59
45
67
78
59
47
67
77
60
47
66
78
59
48
66
79
59
47
65
77
58
46
66
76
57
47
64
75
57
44
61
74
57
41
61
72
53
41
58
72
51
40
57
70
52
39
58
70
51
39
58
70
51
40
57
71
54
41
60
75
58
46
67
80
64
56
75
91
77
64
88
104
90
80
102
119
106
97
120
137
125
116
138
156
143
135
157
175
162
151
174
191
177
169
189
206
194
181
204
208
205
194
208
207
207
202
206
206
207
208
208
208
207
208
207
206
207
209
208
207
207
205
206
207
208
207
207
207
209
205
206
206
208
200
206
208
207
195
208
207
206
191
203
207
200
183
200
206
195
179
193
207
189
173
188
203
185
167
182
195
179
162
177
190
172
155
169
184
168
150
166
179
162
144
159
173
157
138
155
169
153
135
150
167
149
132
148
160
144
129
141
159
143
128
142
158
143
123
140
158
142
125
138
154
140
126
141
154
141
125
140
156
141
127
139
156
144
127
142
159
144
128
142
162
145
130
146
163
147
130
143
162
147
133
146
160
147
129
142
162
146
130
144
160
146
127
142
157
143
126
139
155
142
124
136
154
137
119
132
147
132
115
127
146
128
110
124
140
126
107
121
139
123
104
115
135
119
101
113
131
116
97
109
123
112
92
104
122
106
91
100
117
103
86
96
113
100
83
95
112
97
80
92
109
95
76
88
105
91
72
85
101
88
70
82
100
87
68
78
97
84
64
76
95
81
62
72
91
79
60
71
90
76
58
70
87
74
57
66
87
74
55
65
85
72
55
61
83
71
53
61
83
72
52
62
81
70
48
60
83
70
50
61
79
68
49
60
79
68
49
61
79
66
50
60
79
67
48
57
79
66
47
57
79
67
48
57
78
67
49
58
77
67
48
57
77
67
47
57
78
66
47
57
78
67
47
58
78
68
48
59
78
69
50
59
79
70
48
58
81
68
51
58
79
71
49
60
78
70
51
60
80
70
52
59
82
70
49
58
81
70
50
56
79
70
48
55
77
69
48
55
78
66
45
55
77
69
46
54
76
67
46
54
76
67
46
53
74
66
48
54
78
68
51
58
83
75
55
65
90
84
66
76
100
95
79
90
114
108
94
106
131
126
108
120
150
145
129
141
167
162
148
158
185
183
164
175
201
198
180
189
207
207
195
202
207
208
203
205
208
206
210
209
207
207
207
208
208
207
207
206
208
208
205
207
208
206
208
206
208
207
207
207
208
208
206
207
207
207
204
207
207
208
197
202
208
207
193
196
210
208
187
189
209
203
180
184
203
194
174
178
196
190
168
170
192
186
162
166
186
179
158
159
181
175
152
153
175
167
146
147
169
164
141
142
166
158
136
138
162
155
134
137
159
154
134
134
157
152
132
135
157
153
131
134
157
152
132
135
157
154
134
136
159
157
135
137
159
156
134
138
160
157
136
138
164
158
138
138
162
162
140
142
164
160
139
142
165
160
140
140
164
161
141
140
163
159
139
140
163
160
137
136
159
156
134
135
156
153
131
130
153
150
129
128
150
147
123
124
147
143
123
122
142
140
118
118
140
137
117
116
139
135
113
111
133
131
110
107
129
129
105
105
128
124
102
99
124
121
97
96
118
117
95
93
118
114
91
90
111
109
89
88
110
107
87
84
108
107
86
84
106
104
83
80
105
102
83
82
103
104
81
79
101
102
82
79
102
100
79
78
101
102
80
79
100
101
77
75
100
99
79
76
100
99
78
74
98
100
77
73
98
98
77
74
96
96
76
72
97
97
75
71
97
98
73
71
95
95
74
71
94
98
74
69
96
97
74
70
94
96
74
71
93
95
76
70
93
94
75
70
91
92
72
68
92
94
73
68
91
92
73
66
87
90
70
65
87
89
69
65
86
89
67
61
85
88
65
59
83
87
64
58
81
84
65
58
80
84
64
60
80
83
66
60
83
87
68
63
88
90
73
70
93
100
82
78
103
110
92
89
114
124
106
104
131
139
121
117
145
156
137
134
162
169
155
152
178
187
169
167
193
200
185
180
204
207
196
192
208
207
207
203
207
206
208
208
207
207
207
209
205
206
206
207
206
208
206
206
207
208
207
207
207
206
207
203
206
208
208
198
207
206
202
194
207
206
195
186
205
207
187
179
198
204
181
171
194
197
175
165
184
189
168
158
176
183
160
151
172
177
153
145
166
170
148
139
159
163
142
133
152
157
136
125
146
154
132
122
141
148
127
119
140
146
124
115
137
144
124
114
133
142
125
115
135
142
124
112
136
144
125
117
138
145
127
119
140
150
129
119
141
152
133
122
143
151
134
124
146
156
135
127
146
156
138
126
149
156
137
129
146
157
138
127
148
158
136
126
147
154
134
126
144
155
134
122
141
151
132
120
140
149
130
119
137
148
125
113
133
141
121
111
129
138
116
106
125
133
116
103
122
132
109
98
116
126
107
96
114
124
103
91
111
121
100
88
106
118
97
85
103
113
93
80
101
110
91
78
98
108
89
72
94
103
84
74
91
101
81
67
87
98
80
66
84
97
77
65
82
94
75
61
81
91
75
60
78
89
72
59
76
88
68
56
74
88
67
55
74
88
66
53
74
86
66
53
70
84
65
53
68
81
64
50
69
82
61
49
69
81
61
48
67
79
63
49
66
81
64
50
66
80
63
49
64
81
64
48
66
80
63
49
65
80
64
50
66
78
63
48
66
80
62
50
67
82
65
49
67
82
63
50
65
80
63
49
65
80
64
51
65
83
63
48
66
80
62
49
65
80
62
48
62
79
64
47
64
80
62
46
62
77
64
47
63
78
61
48
63
80
65
47
66
83
65
53
71
87
73
60
76
97
82
71
88
108
96
83
102
123
108
97
117
138
125
114
134
156
142
131
151
172
159
148
167
187
178
165
183
203
193
181
195
204
205
191
207
206
206
199
209
208
206
206
207
208
209
208
206
207
207
208
206
208
208
207
207
206
206
207
208
209
207
206
208
207
207
199
206
206
209
195
206
206
205
189
200
205
201
181
192
207
193
173
187
203
186
167
180
196
181
162
174
190
174
153
166
182
167
148
159
175
159
139
152
169
153
134
144
162
145
127
139
158
143
124
134
150
138
119
131
150
134
117
129
147
133
116
127
145
132
114
125
146
132
115
126
146
134
114
130
148
135
118
130
150
138
120
135
154
140
125
136
157
145
126
139
161
148
131
143
161
149
132
143
164
150
132
144
164
150
133
142
163
151
132
143
162
151
131
142
161
150
131
141
160
149
128
138
158
145
124
135
154
142
122
132
154
138
120
129
150
137
115
126
146
133
113
120
142
129
106
117
136
125
105
113
133
121
100
108
126
117
96
104
125
115
94
102
122
109
89
99
118
104
85
94
114
104
83
89
109
100
78
88
109
97
76
84
103
95
74
80
102
92
70
77
100
88
66
75
98
86
65
73
95
85
63
70
91
83
63
72
93
82
62
68
91
81
60
68
91
81
58
68
92
79
60
68
91
80
58
68
90
81
59
68
91
79
59
67
89
80
60
66
90
82
59
66
89
81
61
65
87
79
59
66
89
80
59
66
88
78
58
63
84
79
59
64
86
79
58
64
86
78
57
64
84
79
58
62
86
79
59
65
89
80
60
68
92
84
65
72
95
92
72
78
104
101
82
89
114
109
93
100
127
122
106
115
142
138
122
129
156
153
137
145
172
169
151
159
186
185
166
173
200
196
178
186
208
207
191
197
208
208
200
204
207
208
206
209
207
206
206
209
208
208
208
208
207
207
206
206
208
207
208
207
207
208
206
208
208
208
201
204
208
208
196
196
208
205
192
191
207
204
183
185
206
200
177
177
198
191
168
170
191
186
163
164
185
177
154
154
178
170
147
148
168
163
138
140
163
156
132
132
155
149
128
128
150
145
124
123
147
140
121
121
143
139
117
116
139
135
115
115
138
136
115
116
139
134
114
116
138
137
117
117
142
137
116
118
143
140
121
122
147
144
123
124
146
146
126
128
152
151
130
130
154
152
131
132
155
154
132
133
156
157
135
135
157
155
136
134
156
155
135
133
156
156
132
131
154
152
128
128
152
150
128
127
150
147
126
124
146
144
124
119
141
141
118
117
138
136
114
112
134
134
111
108
132
128
106
104
126
125
103
102
125
122
99
96
118
120
94
94
117
115
93
87
111
112
90
87
109
108
86
84
108
105
83
82
103
103
80
78
100
101
78
74
96
99
76
70
94
96
76
70
93
93
72
69
91
92
70
67
91
90
69
67
89
92
70
65
87
90
67
64
88
89
68
63
87
90
66
65
86
90
67
64
88
90
68
65
88
89
68
64
86
90
68
66
88
90
69
64
88
91
69
63
87
92
70
64
86
90
69
64
87
89
67
63
86
91
70
62
84
89
67
61
85
88
66
61
83
88
64
61
84
87
66
61
83
88
67
62
84
89
69
63
85
93
74
67
92
99
79
74
100
108
91
85
111
120
103
100
125
133
117
115
140
150
134
131
157
168
150
146
174
182
165
161
188
200
183
177
203
207
197
192
207
206
206
204
208
208
206
205
207
206
206
207
207
208
207
207
207
206
207
209
207
208
208
208
209
207
206
207
207
208
208
208
208
207
208
208
208
207
207
202
206
207
205
197
207
206
201
189
208
206
194
184
202
207
189
176
198
202
179
168
188
194
173
162
183
188
167
156
176
184
162
152
171
178
157
144
164
171
149
139
157
166
144
133
153
162
141
130
150
157
136
128
146
155
136
125
148
157
137
125
145
155
135
125
144
155
135
125
146
154
137
127
148
159
137
129
149
161
140
131
151
163
143
135
154
164
146
136
154
164
148
136
158
166
148
136
155
167
147
137
155
166
146
135
155
165
145
134
153
164
144
133
153
161
143
131
150
160
139
126
146
155
135
123
142
152
132
118
138
147
126
115
132
143
125
111
129
139
119
106
125
135
115
102
120
131
112
97
114
125
105
94
109
123
104
89
107
117
98
87
104
115
96
81
99
111
90
79
97
108
90
73
94
103
83
72
87
102
82
71
86
99
80
67
83
95
76
63
81
92
77
62
79
92
71
59
77
91
73
57
74
88
70
57
75
87
70
54
73
86
70
54
71
86
69
54
71
86
67
55
71
83
67
53
70
85
68
52
70
84
66
53
71
86
68
53
70
86
68
52
69
84
66
52
69
86
69
53
68
85
67
53
69
83
68
50
69
85
67
52
67
82
67
51
68
84
65
51
66
82
66
48
65
83
68
50
65
84
66
51
67
84
68
54
69
88
74
57
75
95
80
66
85
104
90
76
95
114
103
89
108
128
116
105
121
145
132
121
140
160
147
135
157
177
165
151
172
190
179
168
182
206
194
179
197
208
203
189
205
207
208
199
206
207
208
204
208
207
206
206
207
209
205
205
207
209
208
204
207
207
207
203
207
207
206
200
208
206
208
193
207
207
206
188
200
206
200
182
195
208
195
177
187
202
188
167
180
199
182
164
173
192
176
157
167
186
168
149
163
178
162
143
155
172
158
137
148
163
151
132
143
160
144
127
139
157
140
122
134
150
138
119
130
149
137
117
130
148
132
114
126
146
134
115
128
147
133
117
128
148
134
117
128
146
137
118
128
148
137
119
133
151
141
121
134
155
141
122
135
156
143
125
138
158
144
125
136
156
146
125
136
157
144
125
136
158
147
125
135
156
142
125
134
154
142
121
133
150
139
120
128
148
136
117
128
146
135
113
124
141
128
111
120
140
126
107
116
136
125
105
113
132
122
101
109
128
115
96
103
126
113
95
102
123
110
89
97
116
104
86
94
114
102
84
91
112
98
77
86
107
96
77
85
105
93
74
80
102
90
71
78
97
88
68
73
96
87
66
74
94
84
65
71
94
82
62
70
90
83
61
68
88
79
61
67
87
77
57
64
86
76
57
64
85
78
55
62
85
76
56
63
84
76
54
63
82
74
56
64
83
74
56
63
83
73
55
63
85
77
54
61
85
77
56
62
85
78
55
60
84
75
56
64
84
77
54
59
83
76
54
60
81
73
55
59
81
74
53
60
80
71
52
57
80
74
54
57
79
73
52
58
82
75
57
62
85
79
60
66
91
88
67
74
99
95
76
85
112
107
91
97
125
122
104
113
138
137
121
128
156
152
135
142
170
167
149
156
184
180
165
169
195
192
176
181
206
202
185
190
208
208
193
199
208
207
199
202
207
208
201
202
206
206
200
202
207
207
199
202
206
208
196
197
207
207
191
194
206
206
186
188
208
205
181
182
204
199
175
177
199
192
172
172
191
187
165
164
186
181
159
158
181
176
153
152
173
168
145
145
167
162
142
141
161
157
134
135
156
