47
61
71
58
50
61
72
60
51
66
78
67
59
75
89
80
73
90
105
96
90
107
120
111
106
124
139
129
125
139
155
146
139
157
168
161
153
167
180
173
165
178
188
179
172
183
194
185
177
187
199
191
182
189
202
188
180
190
202
191
182
192
202
190
178
188
199
190
177
188
196
185
173
181
193
181
170
176
188
177
165
174
185
173
162
170
181
169
157
164
176
166
151
160
172
163
150
159
170
160
146
154
165
156
143
151
162
152
140
148
160
150
136
144
157
148
135
142
154
143
131
139
151
139
127
134
147
137
125
132
144
136
124
132
144
135
124
129
142
135
121
129
142
133
122
129
140
135
121
128
141
132
120
128
142
132
120
128
142
133
120
128
142
133
120
127
141
132
119
126
142
132
120
128
140
133
118
127
140
133
119
126
139
130
118
124
140
131
116
124
137
129
115
120
135
128
115
119
133
125
112
117
130
124
110
116
130
122
107
112
126
121
105
112
126
118
103
108
123
114
101
105
121
113
99
104
118
110
95
100
115
107
93
96
112
104
89
96
109
102
88
94
108
100
85
90
104
97
82
87
101
95
81
85
99
95
79
83
97
90
77
81
95
90
74
78
94
87
73
77
91
87
71
75
91
87
70
72
87
84
69
71
87
82
66
73
87
79
65
70
86
79
66
68
86
80
64
67
85
79
64
65
82
80
65
66
82
79
63
65
83
77
60
66
83
76
62
65
81
76
61
65
81
75
62
63
80
74
61
64
79
75
60
63
79
76
62
62
80
77
64
66
85
83
70
73
94
93
84
88
108
109
99
104
124
126
118
123
142
144
134
138
159
160
150
153
173
174
163
165
185
188
177
179
196
194
182
186
203
202
190
190
206
207
193
193
206
207
193
194
208
207
195
195
208
206
194
194
209
205
191
190
205
204
188
187
203
199
183
182
198
196
181
177
193
191
176
174
188
187
170
167
183
182
166
165
179
180
163
161
176
175
158
158
172
171
158
152
170
167
152
149
167
166
149
147
163
160
146
141
157
157
143
137
155
155
139
136
151
152
136
135
150
148
134
131
147
145
132
128
145
144
131
127
142
143
130
126
143
142
128
126
140
143
128
124
140
143
127
124
140
142
128
124
141
143
129
125
142
144
129
127
141
143
129
125
140
143
127
126
141
143
128
124
139
141
126
121
137
140
124
121
135
137
124
120
135
137
123
118
134
135
122
115
130
133
119
112
128
130
117
111
126
129
114
107
122
126
109
107
120
124
110
104
118
122
107
101
114
118
103
97
111
115
100
95
109
113
97
92
106
111
96
89
104
108
91
86
100
104
90
81
98
103
87
80
96
99
85
77
91
97
82
73
89
94
82
73
88
92
79
72
85
90
76
67
83
87
73
67
81
88
73
66
80
86
70
63
76
84
70
61
74
84
69
60
74
81
67
60
74
81
67
60
73
80
67
57
73
79
66
57
72
79
66
58
72
79
63
55
69
77
63
55
70
77
62
56
70
77
62
54
68
73
59
53
65
75
61
51
65
76
62
52
67
77
64
56
71
84
73
67
84
97
88
83
102
114
105
102
119
133
125
119
137
151
142
138
155
169
158
152
170
183
172
166
182
194
184
174
190
201
190
185
198
208
197
188
202
208
201
192
203
206
200
191
202
206
200
192
202
208
199
189
201
205
198
187
198
207
194
183
194
203
189
180
188
199
185
173
183
194
181
170
180
190
178
166
175
183
174
160
171
181
170
157
168
178
164
154
163
173
160
149
157
168
159
146
155
167
154
141
152
161
148
139
149
159
148
135
144
155
142
131
141
152
140
128
138
150
139
127
136
149
137
125
134
147
135
123
134
144
135
122
131
144
135
121
131
146
135
124
134
146
136
124
132
145
135
123
133
146
136
123
133
146
135
125
133
146
138
126
135
146
137
125
134
143
135
123
133
146
136
122
131
143
132
121
130
145
132
121
129
141
130
117
124
136
128
115
124
135
126
113
122
134
124
110
117
131
121
106
114
127
119
107
114
127
117
104
111
122
114
101
106
122
113
99
106
119
110
95
100
114
104
92
98
112
103
89
96
110
101
86
94
106
98
85
90
103
93
82
87
102
93
79
83
97
90
78
82
97
89
72
79
95
87
71
76
92
82
70
76
89
81
68
74
87
80
66
73
85
79
64
71
86
76
63
70
82
75
61
67
83
73
62
67
81
74
60
63
81
74
60
64
80
73
58
63
81
73
58
63
78
71
58
62
80
72
57
61
77
71
57
61
77
71
58
59
76
71
55
59
77
72
55
59
75
69
56
59
76
72
60
66
82
79
69
75
93
94
84
93
112
113
104
112
131
133
123
130
152
152
141
148
168
167
154
162
181
180
170
174
191
192
180
185
202
199
187
191
207
204
192
197
208
207
196
199
208
206
198
198
210
207
197
198
207
208
195
196
207
207
192
194
208
205
190
190
205
198
183
184
200
196
182
179
195
190
175
174
191
186
171
171
186
181
165
165
180
177
159
162
176
173
158
156
173
169
152
153
167
166
150
149
165
161
147
144
159
156
142
140
157
153
139
137
152
150
136
133
149
148
132
131
145
143
128
128
144
144
128
128
145
143
129
126
141
142
126
125
141
142
127
125
142
142
127
126
142
142
126
125
142
142
127
125
144
142
128
128
143
145
130
128
143
143
129
127
144
144
130
128
143
142
130
125
142
141
127
124
141
141
127
122
141
140
126
122
139
137
122
121
138
137
121
118
135
135
120
115
131
133
117
113
129
129
112
110
124
128
113
109
123
123
110
105
121
120
104
102
117
116
103
100
114
116
98
96
110
112
98
92
109
111
94
89
104
106
92
87
102
105
89
83
98
100
85
79
95
99
83
78
93
96
81
74
89
94
77
73
87
92
75
70
86
88
74
68
83
86
70
66
83
86
68
61
78
85
66
61
80
84
66
60
77
81
65
60
73
79
66
59
74
80
63
58
74
79
65
58
73
78
63
57
72
76
64
57
72
76
62
54
69
76
62
55
71
75
61
54
71
76
60
55
68
74
62
52
69
73
61
55
68
76
62
56
72
83
71
66
83
94
85
81
100
113
103
100
119
130
122
121
140
150
142
140
158
167
156
155
172
183
172
167
184
194
181
178
193
203
193
186
201
207
197
189
205
206
202
193
208
206
203
195
207
206
204
195
206
208
201
194
205
208
201
193
203
205
196
187
200
206
191
183
195
201
189
179
190
196
184
173
184
192
177
167
180
186
175
164
175
185
169
161
170
179
164
153
166
173
162
153
161
170
158
147
159
168
154
144
155
163
149
140
149
158
146
134
147
155
141
132
144
153
139
128
140
149
138
128
137
147
134
125
137
147
133
125
134
146
132
123
135
145
132
123
134
144
132
123
135
144
133
124
135
146
134
123
133
145
134
123
135
146
136
125
134
146
135
126
136
148
135
123
135
148
136
124
133
147
134
121
132
145
134
122
132
145
132
120
131
142
130
119
127
139
129
117
127
139
127
114
124
138
124
113
123
134
122
111
120
130
119
108
116
128
116
103
114
126
114
100
110
122
112
98
107
121
107
94
104
118
105
92
99
114
101
88
99
110
99
86
97
107
95
82
92
106
94
81
89
103
91
77
88
100
88
75
84
98
86
72
81
95
84
70
79
94
81
68
75
90
78
65
75
88
78
63
73
86
75
62
71
84
74
60
69
82
75
61
69
82
73
59
66
81
73
60
66
81
70
58
65
80
71
57
65
79
71
55
65
80
71
55
64
80
69
56
64
80
69
55
63
79
69
56
61
78
70
55
62
79
70
56
62
79
73
60
67
89
82
69
82
99
97
88
97
118
116
109
117
137
137
128
138
156
154
145
156
174
168
160
168
188
183
170
180
196
194
180
189
204
202
189
195
206
206
194
198
208
208
197
201
206
206
197
201
206
207
196
199
209
207
193
198
209
207
190
195
207
201
185
191
206
197
184
188
200
195
178
182
195
190
174
178
192
182
169
172
184
181
164
167
183
176
161
163
178
172
159
159
172
168
153
156
172
163
149
151
167
162
146
149
162
157
142
144
160
155
139
140
156
150
134
137
151
148
133
135
150
145
129
132
147
143
129
132
146
143
129
128
145
140
128
129
146
141
126
130
145
143
127
129
145
143
129
129
147
143
128
131
144
143
130
130
146
145
131
131
146
143
130
130
148
143
130
130
146
141
128
127
145
142
127
127
142
141
128
126
142
139
122
126
140
139
124
122
137
135
121
119
135
133
116
118
133
132
115
115
131
129
112
112
128
126
110
108
123
124
107
105
123
122
105
102
119
118
102
100
115
115
99
97
112
112
96
94
111
108
91
90
106
107
91
87
104
105
89
85
100
100
87
82
97
97
82
80
96
95
79
78
94
92
78
74
90
90
75
72
90
90
73
71
87
87
73
69
85
86
70
67
83
83
68
67
82
82
68
65
80
85
68
64
80
83
65
62
80
79
64
62
78
81
65
61
78
79
63
59
76
80
63
59
77
77
62
58
75
76
62
59
73
77
63
56
74
77
61
59
74
77
63
59
76
82
67
65
83
91
79
76
97
105
95
94
117
125
114
115
136
143
132
132
155
161
151
150
169
176
165
164
180
188
176
175
192
198
186
182
199
205
192
190
205
207
197
191
206
208
199
192
208
206
199
195
209
207
198
193
207
206
197
190
204
206
194
187
203
204
190
184
196
201
186
179
191
197
183
174
188
192
177
170
184
188
173
166
179
185
170
163
177
179
165
158
172
177
160
154
167
174
158
149
165
169
154
146
160
167
152
143
156
163
147
138
153
159
144
137
150
153
142
132
145
153
138
132
142
150
137
128
141
151
136
128
140
148
133
127
140
148
134
128
140
146
134
126
139
148
134
126
141
146
135
126
140
147
136
125
138
148
136
126
139
147
134
126
139
146
134
125
140
147
133
127
137
145
133
124
135
146
132
123
135
144
131
123
135
142
130
120
132
137
126
118
129
138
126
114
126
137
122
114
124
133
119
111
122
130
117
106
117
127
115
103
114
123
111
102
113
123
109
98
110
117
106
95
107
115
102
93
103
112
100
90
99
108
97
86
97
105
93
83
93
104
93
78
90
102
90
77
89
99
88
75
85
96
84
73
83
94
80
71
81
93
79
70
80
89
77
68
78
88
75
65
75
85
75
65
74
85
73
62
72
85
74
61
72
81
71
60
68
82
73
58
69
81
70
59
68
81
71
57
69
79
67
57
67
80
68
58
67
80
67
57
65
79
70
56
65
79
68
55
65
80
69
56
66
78
68
57
68
82
72
63
74
89
82
74
88
105
99
92
106
122
118
111
121
143
137
128
143
157
153
144
156
175
169
159
170
184
179
169
180
198
189
177
189
203
197
185
194
207
200
189
198
206
200
191
201
207
205
191
197
207
202
191
198
209
200
188
194
207
197
185
191
204
195
182
188
200
191
177
183
197
187
170
177
191
183
168
172
188
179
164
172
182
175
162
167
183
173
157
162
176
168
155
160
174
167
150
156
171
164
149
154
167
158
146
148
165
157
142
147
161
153
141
143
159
152
136
141
156
148
135
139
154
147
131
136
150
143
130
134
152
144
130
133
151
143
128
135
150
143
128
132
148
144
130
133
148
144
128
133
148
143
129
133
148
142
129
134
149
142
128
131
147
141
129
132
147
141
127
131
147
140
128
131
144
141
124
128
142
138
123
127
144
138
122
124
141
136
120
123
136
131
116
122
137
129
115
119
131
128
111
115
130
125
111
113
126
122
109
110
124
120
102
105
121
118
101
102
120
115
99
101
115
112
98
97
113
108
94
96
109
105
91
93
106
102
87
89
104
101
86
86
102
100
83
84
99
96
82
82
96
94
80
80
95
94
75
77
93
90
76
77
92
89
73
73
90
87
72
74
87
86
72
71
87
86
70
70
86
84
69
69
85
83
67
69
85
83
66
67
84
81
66
68
83
82
67
67
83
81
66
67
83
80
68
66
81
82
65
65
81
80
66
64
82
81
65
63
82
81
67
66
83
85
73
72
93
96
83
84
105
109
100
101
124
128
117
120
139
145
133
137
157
162
150
152
171
175
163
163
183
187
175
176
193
195
183
181
200
202
187
188
204
203
193
190
206
206
195
193
206
207
193
189
205
206
194
190
202
204
190
187
199
201
188
185
196
198
184
181
193
195
180
177
191
190
177
173
185
188
173
168
183
183
167
163
179
182
167
161
176
178
163
157
174
176
160
158
170
172
158
154
167
170
155
152
164
166
152
147
160
162
150
145
157
160
146
141
156
157
142
138
153
154
141
137
150
154
140
135
148
151
137
133
148
151
135
131
146
150
133
130
146
150
133
128
144
148
135
129
141
148
134
129
143
148
132
129
144
148
133
126
143
147
132
126
141
146
131
124
143
144
131
125
139
145
132
124
139
143
129
123
135
141
130
122
133
139
126
118
133
137
123
116
130
137
121
113
130
134
121
113
126
130
116
110
124
129
113
106
120
128
111
104
118
123
108
101
114
122
105
100
113
118
105
97
110
116
100
92
107
114
98
91
102
109
95
88
100
107
94
85
98
104
90
82
96
103
89
79
93
99
87
79
91
99
84
76
89
95
83
74
88
96
80
72
84
94
79
70
84
91
79
69
83
92
77
68
80
91
76
68
80
90
76
66
80
89
75
65
78
88
74
64
76
85
74
64
77
86
72
63
74
85
73
63
74
85
71
62
76
83
73
59
75
85
71
61
72
85
71
61
74
83
74
65
76
89
79
71
87
101
90
84
99
115
106
100
117
133
123
117
135
150
142
134
150
164
155
149
162
176
167
160
174
186
178
169
182
194
186
174
189
202
190
181
190
203
191
183
194
204
195
184
194
205
194
184
193
205
191
181
193
200
189
178
189
198
187
176
185
195
184
171
180
192
180
168
178
189
177
164
175
185
174
162
171
184
171
160
166
178
168
157
166
177
168
154
163
175
164
152
159
172
163
148
157
169
160
147
156
168
156
145
154
165
153
144
151
160
150
136
144
157
148
132
143
156
146
134
140
153
144
131
137
152
142
128
138
150
140
129
138
147
139
128
133
147
137
125
135
147
137
125
133
146
137
125
131
144
137
125
132
145
135
121
130
144
136
124
129
143
134
122
129
141
132
120
126
140
133
118
125
139
130
118
123
138
128
116
121
136
127
113
118
133
124
111
117
133
123
108
115
130
120
106
113
127
117
105
110
123
115
100
107
121
112
98
103
117
110
95
102
114
108
95
97
111
105
91
96
110
100
89
93
107
100
85
91
106
97
83
88
105
93
81
85
101
92
78
84
97
91
78
81
95
88
74
79
93
86
73
77
93
86
71
77
91
84
68
75
89
84
69
73
88
82
67
72
87
83
66
71
87
79
64
71
84
78
67
69
85
79
63
68
84
78
63
67
84
75
62
64
81
78
62
67
80
73
59
63
79
73
58
64
78
72
60
62
79
72
57
62
77
72
56
60
78
71
60
61
79
74
62
64
83
82
68
75
96
91
81
89
108
107
100
105
123
126
115
123
144
141
130
138
158
159
146
150
169
170
158
162
179
180
166
170
187
185
175
176
191
191
178
178
197
194
179
181
195
195
180
182
198
192
179
181
196
192
180
178
193
191
175
175
191
187
171
172
186
184
170
170
185
180
167
166
181
178
163
163
179
175
161
161
177
171
158
158
173
171
155
156
171
168
154
154
169
166
151
152
167
164
149
148
163
162
148
145
160
159
144
143
158
156
141
140
155
152
139
137
152
149
135
135
149
148
133
132
147
147
131
130
146
145
129
129
144
143
128
127
144
143
128
127
141
142
127
125
141
143
126
122
140
141
127
124
138
141
126
122
138
140
127
123
139
137
124
122
137
136
122
121
136
136
124
119
134
136
120
118
133
132
117
117
131
131
117
115
128
132
116
112
127
128
112
110
124
125
112
106
121
122
106
104
117
121
107
103
117
118
105
98
114
115
102
97
112
112
97
95
107
110
95
91
104
108
92
89
104
105
91
86
101
103
89
83
97
101
86
83
94
99
83
80
94
97
82
75
91
95
79
75
90
93
77
74
86
92
76
72
85
91
74
70
84
90
73
68
82
86
73
66
82
86
72
66
81
83
71
64
80
83
69
64
78
82
69
62
79
82
68
61
78
82
68
62
77
83
67
62
75
82
67
61
76
81
66
60
75
79
66
59
74
81
65
58
73
81
64
59
74
77
65
58
73
78
66
58
72
77
64
58
70
78
64
56
72
75
63
56
70
78
64
59
72
82
68
64
79
91
78
75
90
104
92
90
108
121
109
109
125
139
129
123
142
153
143
141
157
168
158
151
167
178
168
163
177
188
176
171
184
194
183
175
190
197
185
177
189
197
186
179
191
200
187
181
193
198
188
178
189
198
186
177
186
195
183
173
184
193
179
172
180
189
176
167
180
185
173
161
175
182
170
161
172
179
167
156
170
175
164
154
166
175
162
150
164
173
160
149
162
169
157
147
157
168
153
145
157
163
152
140
152
162
149
140
150
158
147
135
146
156
144
134
145
152
139
132
140
151
140
129
139
150
138
127
139
147
136
126
138
148
136
125
136
148
133
126
134
147
134
125
135
144
133
123
134
145
133
123
133
145
134
122
134
143
131
123
133
142
130
122
129
142
131
119
129
142
129
117
128
137
126
118
126
136
125
114
123
136
125
112
122
131
120
111
121
131
119
108
117
128
116
106
115
127
113
102
112
124
111
100
109
118
109
98
107
118
109
93
104
116
105
92
101
113
101
90
98
110
100
87
95
108
96
87
94
105
97
81
91
104
94
80
88
100
90
80
87
98
89
74
83
98
88
74
84
94
85
72
79
93
83
72
79
92
83
70
77
90
81
69
74
89
81
67
73
87
79
65
73
87
79
63
73
86
77
64
72
85
76
61
71
82
75
62
70
83
75
62
68
81
75
61
69
83
74
62
68
83
73
62
68
83
75
62
68
84
74
62
67
83
75
63
66
82
74
60
66
81
74
59
69
81
75
57
65
80
73
61
65
80
73
57
64
79
71
59
64
79
70
57
65
78
70
57
62
79
72
58
66
82
78
64
75
90
87
78
85
105
104
96
106
123
122
113
122
143
140
129
140
158
156
146
152
172
171
161
167
182
178
167
174
192
187
177
184
198
194
180
187
201
196
186
189
201
200
186
189
204
198
185
188
203
197
184
185
201
196
182
185
198
193
179
180
198
189
176
178
194
186
171
175
188
184
169
170
185
178
166
168
182
178
162
166
180
174
161
163
177
171
159
162
174
169
155
157
174
168
152
156
170
166
149
150
168
162
146
150
164
159
145
147
162
156
141
144
159
154
137
142
156
152
140
139
154
151
134
137
153
148
134
137
151
148
134
136
151
146
132
134
150
147
131
132
150
147
132
132
150
146
133
133
148
146
132
131
148
147
129
130
149
146
129
132
146
143
131
130
144
143
130
128
144
142
127
126
143
140
125
126
139
138
122
123
140
136
122
120
137
133
118
118
134
131
117
114
132
130
112
113
128
126
112
110
125
123
109
106
122
120
107
105
120
119
102
102
117
116
100
100
114
113
97
96
110
111
95
94
110
106
92
90
107
106
91
87
104
105
88
85
103
101
86
83
100
100
84
83
96
97
84
79
95
95
81
78
95
94
78
76
92
92
77
74
91
91
77
71
89
89
74
73
88
87
74
69
87
86
73
69
86
86
71
66
83
86
70
66
81
84
70
66
81
84
68
66
80
85
68
67
81
83
68
65
79
83
67
65
80
83
68
65
80
82
69
63
81
81
68
62
79
84
68
65
78
83
67
63
79
81
67
61
80
80
67
61
77
80
65
60
76
80
65
59
77
81
64
62
75
78
65
58
76
79
65
59
74
79
65
61
80
85
70
68
86
95
80
83
100
111
99
101
119
130
119
117
138
145
137
137
155
163
153
149
169
177
166
163
182
188
177
173
190
197
185
183
197
204
189
187
200
206
193
187
202
208
194
189
205
205
194
191
201
209
194
186
201
203
193
186
198
201
187
183
194
200
184
177
191
196
184
174
187
193
177
169
183
188
175
167
181
185
172
164
176
184
167
160
174
180
167
156
173
179
163
156
169
174
163
156
165
173
157
151
163
169
156
148
161
167
153
146
156
164
151
143
154
161
146
140
154
158
143
138
149
157
144
137
148
156
142
132
147
155
141
133
147
152
140
134
144
152
140
132
144
152
139
132
144
152
140
130
143
151
139
132
143
150
138
130
141
148
138
129
140
149
138
129
140
147
136
128
138
145
136
125
135
146
135
125
135
143
133
123
133
144
127
118
131
139
126
118
126
137
125
114
125
135
121
112
122
133
117
110
119
128
116
106
118
126
113
105
113
122
110
100
112
122
109
97
108
118
105
94
105
114
101
91
102
111
101
88
101
110
96
87
97
107
94
84
92
104
92
83
92
102
88
79
89
102
87
78
85
98
85
75
84
96
84
71
84
92
82
69
82
89
81
69
79
88
79
66
77
88
78
65
75
87
73
63
74
85
74
64
73
85
72
61
70
84
72
60
71
81
73
60
71
81
72
60
70
82
70
60
69
82
70
59
69
81
71
58
68
81
70
59
68
80
69
57
67
80
69
58
67
81
71
57
67
81
70
58
67
78
69
57
65
79
68
58
66
79
69
54
66
79
67
55
62
78
65
54
63
78
68
55
65
78
66
55
62
79
71
59
68
86
78
68
82
99
97
89
99
121
114
108
119
139
137
128
139
159
151
144
157
173
168
158
170
185
179
171
179
195
190
179
189
204
197
185
193
210
200
188
196
206
203
191
200
207
205
192
199
208
203
191
196
207
202
188
193
207
199
187
191
205
195
182
189
200
192
179
183
197
189
174
181
193
182
171
175
188
179
166
172
186
177
164
168
182
173
160
165
179
173
157
163
177
170
156
159
174
166
151
157
171
162
152
152
167
162
145
151
165
161
144
148
163
156
140
146
160
151
137
144
157
151
136
139
155
149
135
140
155
149
135
139
154
147
135
138
151
148
131
139
153
145
133
138
153
146
133
135
152
147
133
138
151
146
133
136
152
145
131
137
151
146
133
134
149
144
130
134
149
143
129
133
147
143
127
131
145
140
126
131
144
139
125
126
141
136
122
125
140
134
122
123
138
130
118
118
135
129
114
116
131
126
111
114
126
124
107
110
126
122
105
108
121
119
102
104
117
116
99
102
117
112
97
97
114
108
94
95
110
105
89
91
107
103
88
89
105
101
86
85
102
96
81
83
98
96
81
80
96
93
78
78
94
91
76
76
90
90
72
75
90
87
72
72
89
83
69
68
87
82
69
69
84
82
66
66
82
80
65
66
81
80
64
66
81
81
64
65
80
78
63
63
79
79
63
63
78
78
62
64
78
78
62
62
80
78
63
61
80
78
62
61
79
78
63
63
79
78
60
62
79
77
63
61
78
78
63
62
78
79
63
61
78
78
63
60
78
76
64
61
77
78
62
60
78
78
63
61
80
79
67
66
84
87
76
77
96
101
90
95
113
120
110
113
136
140
131
134
155
157
148
150
170
175
165
165
184
187
177
176
195
199
187
187
204
207
194
193
207
209
200
198
207
207
202
198
207
208
204
199
206
207
203
200
207
208
202
196
206
208
198
194
209
205
195
190
204
208
189
184
200
203
186
181
196
197
182
177
191
195
179
173
188
191
175
172
184
187
173
166
180
183
168
165
180
180
166
162
176
180
163
160
173
176
162
155
171
172
159
151
167
170
154
150
165
168
153
145
161
166
150
142
157
163
148
139
155
159
146
140
152
158
146
139
154
157
143
138
152
156
143
136
151
158
141
138
151
154
141
138
151
155
140
137
150
154
139
136
151
153
140
136
150
154
141
135
148
155
140
133
148
151
138
132
145
152
138
131
143
151
137
128
144
149
135
128
142
146
133
125
138
145
130
123
138
141
126
122
134
140
124
119
131
137
123
115
129
133
119
110
125
131
116
109
122
128
114
104
120
124
110
102
115
121
107
99
112
118
104
95
109
117
99
93
106
110
97
90
101
110
94
86
99
106
93
84
97
103
89
81
93
101
87
77
93
101
83
77
89
95
84
72
86
95
79
72
85
92
78
70
83
91
78
69
81
90
74
68
79
87
75
66
79
86
74
64
78
86
74
64
77
85
72
64
74
84
71
62
75
83
72
61
75
81
71
62
73
84
69
60
73
82
71
60
74
84
68
60
72
81
68
58
73
82
70
60
70
82
68
57
72
80
67
58
70
79
68
58
69
80
67
58
72
84
72
64
79
91
84
75
92
106
99
94
111
128
119
115
131
147
139
135
151
165
157
150
168
179
172
164
180
192
182
177
188
202
194
184
197
205
201
189
204
208
206
195
206
207
208
196
207
207
208
198
206
207
206
196
206
205
206
193
203
207
201
190
200
206
200
186
195
205
195
183
192
202
189
180
187
197
188
174
184
194
182
170
180
191
179
168
175
189
177
166
174
184
173
163
171
184
172
160
169
180
171
157
166
177
167
155
161
174
163
154
161
172
162
150
158
170
157
146
154
166
157
141
151
162
152
141
149
162
151
138
147
159
150
135
146
158
147
137
143
158
146
135
143
156
146
132
140
155
144
132
141
153
145
129
140
151
142
132
138
154
141
132
137
152
141
130
137
150
142
128
136
149
139
128
135
147
140
126
134
146
137
123
131
144
135
122
128
143
134
121
127
140
133
117
125
138
128
114
122
134
126
112
120
132
120
110
115
130
121
107
113
126
119
104
110
123
115
101
107
120
112
99
104
118
109
94
102
114
107
92
99
112
102
89
94
109
98
85
90
106
97
81
87
102
93
79
84
100
91
77
81
96
88
73
81
95
85
71
75
90
84
69
76
89
82
69
73
88
81
65
70
85
79
63
71
83
78
62
67
83
75
61
66
81
74
61
66
81
73
58
65
79
73
59
65
81
73
59
62
79
71
58
62
77
73
57
63
78
70
55
63
78
70
56
60
76
72
55
60
77
69
56
58
74
69
54
57
74
69
54
57
75
68
53
58
74
66
53
57
72
67
52
59
75
70
58
64
83
80
69
76
97
98
87
96
116
118
109
119
137
139
129
137
157
156
146
153
172
172
160
168
185
184
172
179
196
194
182
186
205
201
189
193
208
206
195
197
208
207
195
198
209
207
197
196
207
206
195
196
206
207
192
194
205
205
190
190
205
203
186
188
202
198
182
185
198
195
178
178
193
190
175
176
190
188
172
172
188
182
169
168
184
179
166
165
181
177
161
163
177
177
159
161
176
172
158
156
173
169
156
152
170
166
150
150
167
162
147
149
164
161
145
144
161
157
143
142
157
154
140
139
156
154
138
138
153
151
136
135
152
148
134
135
151
149
133
134
148
148
132
134
148
147
132
131
147
147
131
130
146
146
131
131
146
145
131
131
147
145
129
127
147
143
130
128
144
142
129
125
143
141
126
125
140
140
124
124
138
138
123
122
137
135
121
118
134
133
118
116
132
131
117
115
130
129
113
111
125
127
109
110
124
121
110
104
121
120
104
103
118
119
103
97
113
115
98
96
111
112
98
94
110
108
94
88
104
104
89
88
101
103
86
84
98
101
83
80
96
96
82
77
94
93
77
74
89
91
77
70
88
90
73
71
85
85
71
66
84
83
70
67
80
82
68
62
79
81
64
61
77
78
62
59
75
78
61
58
75
75
60
59
74
75
60
56
72
73
59
55
73
74
61
55
71
73
59
54
70
73
59
54
69
73
58
53
69
74
58
52
68
74
58
52
69
71
56
53
67
71
56
53
67
70
57
52
67
71
55
51
68
70
56
51
65
69
56
50
64
71
55
50
69
70
58
55
72
78
68
68
84
96
83
84
106
115
107
106
128
136
129
127
147
158
145
144
162
172
161
159
176
184
174
171
188
196
182
180
196
204
190
186
202
209
192
189
205
207
198
191
207
206
200
191
206
207
198
189
206
206
197
188
201
208
194
187
196
203
188
181
195
198
185
178
190
195
182
174
186
191
175
169
180
185
174
165
179
183
169
162
176
180
166
159
171
177
161
156
169
174
161
154
165
171
158
150
162
168
155
147
160
167
153
144
158
164
149
141
156
161
146
138
152
158
146
136
149
158
144
136
147
155
143
132
146
153
142
134
147
155
140
133
145
153
140
134
146
154
142
133
147
154
142
133
146
155
143
134
147
155
142
134
146
155
143
134
146
157
142
136
146
155
143
133
145
153
142
134
145
154
142
133
145
153
139
132
142
151
138
128
140
148
139
126
139
149
135
127
137
146
131
125
135
144
130
122
132
141
127
119
129
139
126
115
127
135
122
114
124
132
121
110
123
130
119
107
119
128
116
104
115
126
112
102
114
122
109
100
109
121
106
96
106
115
103
93
103
114
101
92
101
111
98
89
98
110
95
86
96
107
97
83
95
105
93
81
93
102
90
81
89
102
88
80
89
101
88
78
90
101
88
77
87
98
88
75
85
98
86
76
86
98
85
77
85
99
87
76
85
98
87
75
86
98
87
74
85
98
86
75
85
99
84
76
84
97
85
72
84
95
85
72
83
93
84
70
81
93
83
70
78
92
82
70
78
92
79
70
77
92
79
71
78
92
82
70
83
96
87
80
90
107
101
92
107
121
117
107
122
139
132
124
137
151
146
139
152
167
160
151
164
178
171
161
174
186
179
169
180
193
186
175
185
198
190
178
186
200
190
179
186
202
192
180
187
201
190
177
185
198
187
176
181
194
185
171
178
190
182
168
176
188
176
164
168
183
172
159
164
177
168
154
163
173
165
151
157
169
161
147
156
165
159
143
150
164
154
139
149
162
151
139
144
159
150
135
143
156
146
135
138
151
142
129
134
150
139
128
131
146
138
123
131
143
136
121
128
142
132
119
125
139
131
119
124
137
132
116
124
138
129
117
122
135
131
116
123
136
130
117
121
136
130
116
121
137
130
116
122
134
129
114
123
136
130
116
121
135
129
116
121
135
129
115
120
136
127
115
119
134
126
113
118
133
124
111
114
131
122
110
115
129
121
107
111
127
119
105
110
124
117
101
107
121
114
100
105
119
115
98
100
118
111
96
99
114
106
92
96
109
105
90
92
108
101
88
89
107
98
84
87
103
96
80
85
99
93
78
81
98
91
76
79
93
89
73
79
90
86
69
73
89
84
68
71
87
79
67
69
84
81
63
68
81
78
62
64
81
76
61
64
78
74
59
62
78
73
57
61
76
72
58
60
76
73
55
58
76
70
56
58
74
69
55
57
73
68
54
55
74
67
54
56
73
68
55
56
71
67
54
56
71
67
54
55
72
68
53
54
72
69
53
53
71
69
52
56
70
67
52
54
71
68
51
52
70
68
53
57
71
71
57
59
81
81
66
72
93
94
85
91
115
116
105
114
135
136
128
131
151
155
142
149
169
170
158
161
180
181
170
173
192
192
177
181
199
198
185
186
204
204
190
191
207
207
191
193
207
206
193
191
207
206
192
191
208
205
191
188
205
204
186
187
199
198
183
181
194
196
178
178
194
189
176
173
189
187
169
168
185
182
168
165
179
179
164
159
177
175
161
158
175
173
160
155
172
170
154
152
169
167
152
151
166
165
151
148
164
162
148
144
160
160
146
142
159
158
143
139
155
155
139
139
152
153
137
136
151
154
136
136
149
151
135
135
151
149
137
134
150
150
135
132
150
149
138
134
150
151
138
134
149
151
137
134
150
148
137
133
151
149
138
132
148
151
135
134
148
151
136
134
149
148
134
131
145
150
133
130
144
146
131
127
143
145
130
127
141
143
127
124
139
141
126
121
136
138
124
117
134
136
121
115
132
132
117
113
128
129
115
109
124
126
113
104
121
125
107
105
118
121
104
101
116
119
103
96
113
113
100
94
108
112
98
92
106
110
94
88
104
107
91
87
100
102
90
84
97
102
87
80
96
99
84
80
92
98
83
77
90
95
82
74
90
94
79
74
88
92
78
72
87
92
77
71
85
91
75
68
85
89
75
69
83
87
73
67
82
88
73
65
81
87
72
65
79
86
72
64
77
83
71
63
79
83
69
62
76
83
69
62
75
80
68
61
74
80
68
60
74
84
71
64
80
89
77
74
92
101
93
90
109
119
111
109
127
141
130
127
144
155
149
143
161
172
161
159
176
186
174
171
185
195
184
179
192
204
189
185
202
206
195
189
204
207
197
192
203
207
199
193
203
207
197
190
202
205
198
187
201
206
193
184
196
204
192
179
194
198
187
178
190
195
183
174
185
192
178
168
181
188
173
166
177
185
171
162
172
183
168
160
172
178
166
157
168
176
164
153
167
171
162
150
163
169
158
148
160
167
153
146
157
164
152
143
154
161
147
138
149
159
144
137
145
155
141
132
141
153
139
131
142
149
137
128
139
149
136
126
139
147
136
125
138
147
136
123
137
147
135
126
136
146
134
126
135
146
132
124
135
146
133
123
133
143
130
124
133
144
131
121
132
142
131
121
130
140
127
120
128
139
128
116
130
137
125
117
126
135
123
112
125
135
120
109
122
130
119
109
118
130
115
105
115
123
115
103
112
124
111
102
110
120
109
96
107
119
105
93
105
114
103
93
101
111
100
87
99
106
96
85
94
108
93
82
93
102
92
80
88
99
89
77
86
99
86
72
83
93
85
72
80
91
80
68
79
90
79
66
77
89
77
67
75
86
77
62
72
85
74
60
71
84
71
60
71
81
71
59
67
79
71
58
66
81
68
58
67
78
68
56
65
76
69
55
64
78
67
54
62
77
65
51
63
74
64
53
61
76
63
51
62
75
64
51
59
73
65
50
62
76
65
55
64
82
74
64
79
94
91
81
96
112
109
100
114
134
126
120
133
151
146
138
149
167
160
153
161
180
174
165
174
190
183
173
183
197
191
180
191
202
196
182
193
206
198
186
193
208
199
186
192
205
197
185
191
203
195
182
189
203
195
179
187
197
191
176
183
195
186
174
179
192
182
170
172
187
176
164
169
183
174
160
165
179
170
157
163
176
166
153
160
173
165
151
157
170
163
148
154
165
161
146
153
166
157
143
148
161
154
139
145
159
151
137
142
156
147
133
138
152
147
131
136
149
143
129
133
148
140
126
130
146
137
124
129
143
138
125
128
143
136
123
127
143
137
121
127
140
135
121
126
140
135
120
125
141
135
121
125
142
132
119
124
139
131
120
123
138
134
118
123
136
132
118
120
136
129
118
119
136
129
115
118
133
127
114
114
131
125
109
114
130
124
108
110
127
122
106
110
126
118
105
107
121
113
102
104
117
114
98
100
117
111
96
97
112
110
93
95
112
104
90
92
107
102
88
89
105
100
86
87
103
96
83
83
100
93
79
81
95
92
77
77
94
89
72
76
92
87
72
74
89
84
69
71
85
83
67
67
86
81
65
68
83
81
64
65
82
77
63
64
79
76
61
62
80
75
60
61
79
73
60
59
77
75
59
59
76
72
58
59
75
71
56
59
73
73
58
56
73
71
55
56
72
72
55
56
72
69
54
55
72
70
52
53
71
68
53
53
71
68
52
54
72
71
55
57
78
76
66
67
90
91
83
86
107
111
102
107
128
131
122
125
146
151
140
143
163
164
155
158
178
179
167
169
188
189
176
178
195
197
184
184
202
200
188
190
204
205
191
188
208
207
192
192
207
206
190
188
206
202
188
188
201
202
187
183
199
198
184
180
195
194
178
174
191
190
175
172
187
188
171
166
183
182
167
165
180
178
166
162
176
177
160
159
172
171
158
154
169
171
153
152
165
167
152
147
164
162
148
147
160
160
144
143
157
158
142
138
155
154
140
135
153
153
136
132
148
149
135
131
145
148
132
128
145
145
132
128
143
145
130
125
144
146
131
129
142
143
128
125
142
144
130
125
142
143
129
125
140
145
130
125
139
143
129
126
139
143
128
124
139
143
128
123
137
141
124
122
136
138
124
118
134
138
125
118
135
135
122
116
133
134
119
113
129
132
116
113
125
131
115
110
124
126
113
106
120
125
109
104
119
120
106
101
115
119
104
98
113
117
99
97
110
114
99
92
107
111
95
90
105
107
93
87
101
106
92
83
99
102
85
82
95
100
86
77
91
97
83
76
92
94
78
75
90
94
79
74
86
91
75
70
85
89
73
68
82
88
72
65
80
88
72
65
79
86
70
63
77
85
71
61
78
86
69
61
73
84
68
59
75
82
68
60
73
81
67
58
73
81
67
57
72
80
67
56
70
80
65
56
70
77
65
57
70
78
61
56
71
77
65
54
68
76
62
55
70
76
62
57
72
80
66
61
77
87
76
73
91
100
92
89
108
121
113
108
127
140
130
128
144
158
149
144
160
173
163
158
173
185
173
169
183
195
183
177
189
200
191
181
196
202
191
184
196
209
196
187
200
208
194
184
198
207
193
186
196
203
191
182
193
201
188
179
190
199
184
175
187
195
181
171
184
191
178
166
179
184
173
163
174
180
170
159
170
177
168
154
167
175
163
151
163
173
160
150
161
170
157
148
156
168
153
142
155
165
152
142
151
161
149
137
149
158
143
134
147
154
143
132
142
150
140
129
140
151
137
129
137
150
134
126
137
146
137
127
136
147
133
124
135
146
135
125
135
146
135
124
136
145
134
126
135
147
134
124
133
147
137
122
136
145
135
124
134
147
134
122
132
144
134
122
133
143
130
123
130
142
130
117
128
139
130
117
127
138
127
116
125
137
125
111
121
133
121
111
119
131
120
108
117
129
118
103
115
125
116
103
112
126
113
101
110
120
110
99
105
119
108
95
103
115
104
93
99
112
101
88
97
109
98
87
94
109
97
81
92
104
95
81
87
101
91
77
88
98
88
77
83
98
87
74
84
96
85
72
80
93
82
71
78
91
80
67
76
90
79
66
76
88
78
66
73
87
77
64
72
86
77
64
70
85
77
62
71
86
75
63
69
85
75
63
70
83
75
60
68
82
74
59
67
82
73
61
69
81
72
60
65
82
72
58
65
81
71
57
65
78
72
57
63
80
70
57
62
78
69
56
63
77
71
58
67
83
76
64
72
91
86
78
86
108
103
94
106
125
121
112
124
143
140
130
140
157
154
144
155
171
169
157
166
184
179
168
175
192
186
174
180
194
191
177
187
200
195
181
188
201
195
182
189
203
195
182
186
203
193
180
183
197
192
176
182
195
188
175
176
192
185
171
173
188
179
166
170
183
176
163
165
179
174
159
164
176
170
157
158
173
165
151
156
168
165
149
153
168
162
145
150
164
157
145
147
163
155
142
143
157
153
138
140
157
151
135
138
152
146
132
136
150
144
131
135
147
142
127
130
146
141
125
130
144
141
126
129
145
139
126
129
145
139
124
126
144
137
125
126
144
139
125
127
142
139
123
127
142
140
123
126
143
138
124
126
143
138
126
125
141
138
123
124
142
136
123
122
140
135
121
122
138
135
121
121
137
133
118
119
133
133
116
117
133
130
114
116
129
127
112
112
127
124
110
109
125
121
108
107
124
121
105
105
120
120
100
102
115
115
100
99
115
113
96
98
112
110
94
94
108
107
92
91
107
104
90
88
105
102
87
86
103
101
85
83
102
97
83
82
97
96
81
80
95
94
78
78
94
92
78
76
92
90
75
74
91
89
74
73
89
89
73
73
88
86
71
71
86
86
71
71
86
84
71
68
86
83
68
67
84
83
68
66
83
83
68
65
82
82
68
66
81
81
67
64
81
81
64
64
81
79
67
63
80
80
65
62
76
79
64
62
78
78
65
62
78
79
65
62
77
78
66
64
81
84
74
72
91
98
84
87
108
113
104
105
125
132
121
121
144
148
139
137
159
165
153
154
171
176
164
164
183
186
174
173
190
195
180
179
196
197
187
182
200
201
189
186
200
203
188
185
200
203
188
184
199
200
187
180
197
198
183
178
192
194
177
176
187
191
176
169
184
187
173
166
182
184
166
161
176
178
165
158
172
176
160
155
169
173
155
153
166
169
154
148
163
166
151
147
159
167
149
145
159
161
147
141
157
158
147
138
155
156
141
136
150
154
139
134
145
154
137
131
144
150
136
130
144
148
134
128
142
147
133
128
141
148
133
127
140
148
131
127
139
147
133
128
141
146
132
126
143
145
133
125
142
147
135
126
139
146
134
124
142
147
134
126
142
146
133
123
139
145
131
123
140
143
131
123
136
144
131
121
135
142
126
119
133
140
127
119
130
139
123
116
129
135
123
113
129
132
120
112
126
133
117
109
121
128
115
106
120
126
113
105
116
123
110
101
116
122
108
100
111
119
103
96
109
116
102
94
106
113
98
90
104
110
99
87
102
109
93
86
98
106
94
83
96
104
91
82
94
103
88
79
92
99
86
78
90
99
85
76
90
98
83
74
89
96
81
74
85
95
81
72
84
95
80
71
83
91
80
69
82
92
79
68
82
92
77
67
80
90
78
69
79
89
78
68
78
88
76
67
78
87
76
65
77
88
76
64
78
87
74
65
76
85
75
63
74
86
74
65
77
87
76
66
81
93
82
76
89
103
97
89
106
120
111
105
123
137
131
125
138
156
146
140
154
171
161
154
168
183
174
165
181
194
184
175
188
201
190
183
194
206
194
186
196
208
198
187
197
207
200
187
199
208
195
186
196
206
196
183
193
205
193
180
189
199
190
176
187
197
185
173
182
194
180
170
178
187
178
164
174
185
172
162
169
180
170
158
166
180
166
156
164
176
166
153
160
173
162
150
160
170
159
150
155
168
159
145
155
165
155
141
152
163
152
140
147
159
148
136
145
158
145
134
142
153
144
133
139
154
141
130
139
150
142
129
136
151
139
128
135
149
138
126
134
147
139
126
135
146
139
125
135
148
137
125
133
145
137
123
134
145
138
125
134
146
139
124
132
146
136
124
131
144
136
121
130
143
135
120
129
142
134
121
125
142
132
119
124
138
130
115
124
137
129
115
121
134
125
113
119
133
124
110
116
129
122
109
112
126
118
105
111
126
115
100
110
122
112
101
105
119
111
96
103
117
107
94
101
114
106
91
96
111
103
90
94
108
100
88
91
106
96
84
90
104
95
81
88
103
94
80
86
100
91
76
83
96
90
75
80
96
88
73
78
93
86
72
75
93
87
72
76
92
83
70
76
91
82
69
71
87
84
68
73
87
80
67
71
87
80
67
71
87
80
67
68
86
80
66
69
84
79
64
69
84
76
62
66
83
77
62
65
82
76
60
65
81
76
63
65
79
77
63
65
84
79
66
73
90
88
77
87
106
104
93
104
124
123
112
120
141
140
132
138
157
156
146
152
170
172
159
164
183
181
169
174
191
189
176
181
199
194
182
185
201
199
186
188
204
199
186
190
204
200
187
187
202
197
184
187
201
196
178
183
196
192
178
180
193
189
174
174
188
187
170
171
185
182
166
166
180
177
163
163
177
174
156
157
174
172
154
156
170
168
151
153
168
164
151
150
166
162
149
147
163
161
145
145
161
158
143
142
157
155
141
139
154
151
136
135
149
150
132
134
148
147
130
132
147
145
129
130
144
144
128
130
142
144
126
128
141
140
126
126
142
140
127
125
141
140
125
125
140
139
125
122
140
138
126
124
139
140
123
124
138
140
122
125
140
139
124
121
138
136
123
121
134
135
122
121
135
137
119
119
135
135
118
118
132
131
117
115
129
132
116
114
128
128
113
109
127
124
111
108
123
123
108
106
121
120
106
101
119
117
104
101
116
118
101
96
113
113
97
94
111
111
96
92
107
110
93
89
104
106
90
88
102
103
87
86
100
101
84
83
96
97
82
80
94
95
81
78
94
92
80
76
91
92
76
75
88
90
78
72
86
90
76
69
86
89
73
68
85
89
73
67
82
87
73
68
82
84
70
66
81
85
71
66
79
85
69
64
80
83
70
63
80
82
68
63
79
81
67
63
76
81
65
60
76
81
67
60
75
79
65
59
76
78
65
57
73
80
65
59
76
82
69
64
81
91
79
75
94
101
93
93
111
121
114
111
130
138
130
127
147
155
145
144
161
171
160
157
174
181
168
167
183
192
179
174
192
196
183
178
195
202
188
182
199
202
190
183
197
203
190
183
197
201
187
181
194
199
184
181
189
195
183
176
187
192
178
171
183
187
175
166
179
185
169
164
176
181
167
159
172
175
163
154
167
173
159
152
167
168
156
147
162
167
153
146
158
164
151
143
156
162
147
140
154
157
145
136
149
156
144
134
144
154
140
132
145
150
138
127
142
149
132
127
137
146
133
124
138
144
130
122
135
145
130
124
136
144
129
121
132
145
130
120
136
141
130
121
133
142
129
123
133
143
129
122
134
143
131
120
134
140
130
119
132
142
130
120
132
142
126
120
131
142
128
119
130
138
127
116
128
137
126
114
126
134
122
113
123
135
120
110
123
130
119
107
121
127
116
107
118
127
114
105
114
124
111
100
112
121
111
98
109
120
107
94
108
116
103
94
106
114
101
92
102
111
100
87
98
108
96
87
96
106
94
83
93
104
93
80
91
101
89
80
88
100
89
75
87
98
86
74
84
98
85
72
85
92
82
72
83
92
81
72
81
90
81
69
79
91
80
67
78
89
75
67
78
89
76
65
76
88
77
64
73
86
76
65
74
85
76
61
72
85
73
61
72
86
74
60
69
84
74
59
70
83
72
59
68
81
71
60
70
81
69
59
68
82
72
57
68
84
73
61
73
88
81
69
81
101
93
85
98
117
113
104
117
135
129
122
136
151
146
137
151
167
159
153
164
179
174
162
173
191
181
172
184
196
188
178
188
199
194
181
190
205
195
182
192
204
195
181
191
202
194
182
188
201
191
178
186
198
189
174
182
193
184
170
178
189
179
166
172
185
176
163
170
179
171
157
164
177
166
154
160
172
165
148
157
170
159
148
152
167
155
145
149
164
155
141
146
162
150
139
143
158
149
137
141
156
146
132
138
151
143
129
135
148
142
124
131
145
139
123
131
143
135
122
130
142
136
122
128
142
134
121
128
140
135
120
124
141
132
121
126
141
132
121
125
140
133
120
126
141
135
120
126
143
135
120
126
140
133
122
124
139
136
121
125
140
133
120
125
140
134
117
123
138
131
117
122
137
129
115
120
135
129
115
117
134
127
112
118
129
125
111
113
129
123
108
112
126
118
107
109
122
118
104
105
122
116
100
104
118
111
98
101
116
111
94
97
113
106
92
95
112
106
89
94
107
100
87
91
104
100
84
86
104
98
81
86
100
96
78
83
96
92
78
80
95
92
75
78
94
88
74
75
92
87
70
75
92
87
71
72
90
85
69
72
88
83
70
71
87
83
67
68
84
82
66
70
84
81
65
68
84
80
66
65
84
79
64
67
81
80
63
64
82
78
63
64
82
79
63
63
82
77
62
63
79
77
62
63
80
78
60
62
78
78
60
60
79
77
60
60
78
78
62
63
81
80
68
72
89
92
80
85
107
108
97
102
126
127
115
123
141
145
133
139
158
161
150
154
175
175
164
166
185
188
173
175
194
195
181
183
200
200
187
188
203
203
191
190
205
206
191
189
204
205
190
188
205
203
188
186
200
200
184
183
197
197
179
181
193
191
177
172
188
187
172
167
184
183
169
165
180
179
164
163
178
176
160
159
173
172
159
155
170
170
153
151
166
166
150
148
163
165
147
146
160
163
145
144
157
159
142
142
153
155
138
136
150
151
134
134
148
148
132
131
144
147
132
128
145
144
132
127
143
146
129
128
140
144
130
128
143
143
129
127
140
145
129
126
142
142
131
127
141
146
129
125
142
144
131
125
142
144
130
127
142
143
131
127
143
144
130
125
142
143
129
124
141
143
128
123
137
141
125
121
137
140
124
120
136
137
123
117
134
136
121
116
132
132
120
113
130
132
119
112
127
129
115
109
123
126
111
106
122
125
108
105
119
121
108
101
118
120
104
98
114
116
102
96
111
113
100
93
107
112
97
92
105
110
94
88
102
107
92
85
101
105
90
85
99
104
88
82
97
101
87
78
96
101
85
81
93
99
83
78
91
98
85
79
91
99
83
78
92
97
83
76
92
97
82
78
91
96
82
75
92
96
83
78
89
97
83
77
89
97
84
79
92
98
87
78
93
100
84
79
92
102
85
80
95
101
87
79
93
100
88
79
95
102
90
82
95
103
90
82
97
104
93
83
100
108
93
89
106
113
103
100
113
125
116
111
131
142
133
129
147
160
150
148
164
178
167
162
179
189
179
176
192
200
192
185
200
206
199
192
206
207
204
198
207
207
207
198
207
207
207
200
207
206
206
201
206
208
204
196
208
209
202
193
202
206
198
189
203
208
192
185
195
204
189
181
190
201
185
175
186
193
180
170
183
188
177
168
179
184
174
163
176
182
171
161
171
181
166
157
168
175
165
154
166
174
162
153
161
169
159
147
158
167
155
144
155
163
150
138
149
159
147
135
146
155
143
131
142
151
137
127
139
148
136
125
135
145
132
122
134
143
132
121
131
141
131
120
130
139
129
119
129
140
128
119
128
139
128
119
128
141
128
118
129
139
128
116
127
138
126
115
124
137
126
115
126
136
125
112
124
134
125
113
123
134
123
112
121
133
122
108
120
129
119
107
117
127
117
105
115
125
116
103
112
123
112
101
109
120
110
97
106
119
105
96
103
115
105
90
101
113
101
89
97
110
98
87
93
108
96
83
92
105
92
79
91
101
91
79
86
96
89
75
85
98
87
73
82
93
84
73
79
92
82
70
79
88
81
68
75
89
77
65
74
85
77
65
70
85
76
62
69
85
75
61
70
83
73
60
69
83
71
60
66
81
73
58
65
79
72
57
64
79
71
56
63
78
69
55
65
79
69
56
62
77
70
57
61
78
68
56
63
76
67
55
63
76
68
55
61
75
68
55
60
76
67
54
62
76
68
53
62
77
68
53
62
76
67
53
61
74
71
56
66
83
75
65
74
91
89
78
91
109
107
97
108
127
125
118
125
147
140
133
141
161
157
147
158
175
169
159
168
186
179
170
176
192
186
175
181
196
192
178
183
197
194
180
186
199
192
179
185
198
194
178
184
194
191
176
182
194
188
172
178
190
184
170
174
186
182
165
169
183
176
162
164
178
171
159
159
175
168
154
158
171
165
151
153
166
163
148
152
164
162
146
150
166
157
145
147
163
154
143
144
158
153
139
142
156
151
135
139
152
150
134
134
149
144
131
134
146
144
128
129
145
140
126
128
143
138
125
125
141
139
122
126
142
135
123
124
140
136
122
124
139
137
121
125
138
136
121
125
139
134
122
123
138
133
120
123
137
134
119
123
137
131
119
119
134
133
120
119
134
133
117
120
134
131
118
116
133
128
115
116
132
126
112
115
127
127
111
112
129
125
110
108
124
122
107
109
121
121
104
105
120
116
102
102
118
116
100
99
114
113
97
97
112
111
96
93
109
109
92
91
109
105
90
88
104
102
85
87
104
101
86
83
97
98
83
81
98
95
81
79
94
93
77
78
94
89
76
74
91
89
75
73
88
90
73
72
87
86
71
70
86
85
70
68
83
83
67
67
84
83
67
66
82
81
68
65
79
82
66
63
79
80
67
62
80
82
66
63
79
82
66
61
80
81
67
62
78
81
64
63
79
80
65
60
77
80
65
61
77
79
65
60
77
77
63
61
76
79
61
59
76
79
63
59
76
76
61
59
77
76
61
61
76
76
62
60
77
79
66
64
83
90
76
77
97
102
93
92
113
120
111
111
132
140
130
131
151
156
147
147
166
172
161
160
176
184
172
170
188
191
180
177
194
198
184
183
198
203
190
184
201
205
191
187
201
204
191
184
200
203
190
185
199
201
187
180
195
197
183
176
189
193
179
174
185
191
174
168
183
184
169
166
177
181
165
160
173
176
162
157
170
172
159
153
168
170
156
149
164
166
155
145
162
165
151
143
158
161
149
140
156
158
144
137
152
157
140
135
147
153
137
130
145
149
136
128
142
148
133
126
141
145
132
125
138
143
131
124
136
145
130
124
137
144
130
123
138
144
131
122
138
142
130
121
139
144
132
123
137
144
130
122
136
145
130
125
137
143
131
123
136
147
131
123
137
144
130
123
135
143
130
121
134
142
127
121
134
141
126
118
132
138
126
118
130
138
122
115
128
136
121
115
128
133
119
110
123
131
120
109
121
130
115
107
120
128
114
106
117
124
111
103
115
123
110
101
111
119
108
97
109
119
103
93
106
115
103
91
104
113
99
91
103
110
98
88
100
107
95
86
97
105
93
83
95
104
90
82
94
101
88
81
92
100
86
77
90
98
84
75
87
96
84
73
85
94
82
72
84
92
78
70
82
92
77
68
79
91
78
67
79
89
75
68
79
88
74
64
75
87
77
63
75
86
74
63
75
84
73
61
73
86
72
60
71
85
72
60
72
82
72
57
69
82
70
57
67
80
68
57
69
82
70
58
68
80
66
55
65
79
65
56
65
79
66
54
65
78
66
55
65
78
69
59
71
87
79
70
83
101
94
86
103
121
114
110
123
141
136
130
144
159
154
146
160
173
168
161
171
187
180
171
183
198
190
180
190
204
195
185
195
205
200
189
195
208
202
189
197
208
201
189
195
209
200
186
194
208
197
183
190
203
191
180
188
197
188
176
182
193
183
170
176
189
177
164
171
181
173
160
167
176
167
153
159
171
163
148
156
169
159
144
151
164
155
141
147
158
153
137
144
157
147
135
142
153
144
129
136
150
140
127
132
148
138
120
128
142
134
121
127
141
133
119
126
140
132
117
125
139
131
117
123
140
132
117
123
142
133
118
124
141
132
117
124
142
134
120
125
141
134
121
125
143
135
120
127
145
137
122
128
142
135
122
128
141
136
122
128
142
135
121
126
144
135
120
126
139
133
119
125
137
131
117
121
138
130
114
121
136
129
114
118
132
125
110
115
129
123
109
114
126
120
105
110
125
118
102
106
122
115
101
103
120
113
96
100
116
109
94
98
114
106
90
94
110
105
88
91
107
102
86
89
104
98
83
87
100
94
80
84
100
94
77
80
95
89
76
78
92
89
72
73
91
87
70
73
89
84
70
71
86
82
66
68
85
81
64
67
84
78
64
65
83
78
61
64
83
76
61
64
82
76
62
63
80
75
60
62
79
74
59
60
79
74
59
64
78
74
60
61
77
73
60
61
78
74
60
61
77
74
60
59
79
73
59
60
76
75
59
59
78
74
57
59
78
74
58
56
76
74
58
60
77
76
62
63
82
82
69
72
91
94
84
89
108
114
104
110
131
135
125
129
152
155
145
147
168
171
160
161
184
184
173
174
194
194
183
182
202
202
187
191
205
209
194
195
206
207
197
195
208
207
198
194
208
208
198
193
207
207
191
189
205
206
189
186
200
202
184
182
196
194
179
177
191
191
175
172
183
184
168
164
181
181
165
163
176
176
159
156
171
172
155
151
167
167
153
149
165
164
148
146
161
161
146
143
158
160
141
139
152
154
138
136
150
152
136
133
149
149
134
129
145
148
131
129
143
146
131
125
143
144
128
127
140
143
130
124
140
143
128
125
141
144
128
125
142
145
129
127
141
145
130
126
144
145
131
128
142
146
131
126
144
148
132
128
142
147
132
127
145
147
132
128
141
147
130
127
143
147
131
126
141
143
130
126
140
142
126
122
138
141
127
120
135
140
123
118
135
136
123
116
129
134
119
113
129
130
118
110
125
130
114
107
121
125
110
104
120
122
108
100
116
120
106
98
113
116
102
96
110
113
99
93
107
111
97
91
103
110
94
84
102
108
91
83
97
102
89
82
94
101
85
78
93
98
83
76
91
95
82
74
89
94
81
71
84
93
79
72
84
90
76
69
82
90
74
67
81
87
73
66
80
87
72
63
79
85
72
63
76
84
72
64
76
84
69
61
75
84
69
61
75
82
68
61
76
84
68
60
74
83
69
59
72
81
69
59
74
82
66
57
72
81
68
59
71
79
67
57
75
83
70
62
75
86
74
68
86
99
89
84
103
121
109
107
127
141
132
128
146
161
152
147
164
178
170
163
180
193
182
175
191
205
193
185
201
207
201
190
206
208
204
195
208
207
207
198
209
205
207
201
208
207
210
200
206
206
207
197
206
208
202
192
202
207
198
187
199
207
193
182
194
203
189
177
189
197
184
172
182
192
179
168
175
185
175
162
172
183
170
159
170
178
165
155
166
174
162
152
163
171
159
148
157
168
156
145
155
166
155
144
152
162
151
139
145
159
148
134
146
156
144
132
145
153
143
130
138
151
141
128
137
150
140
127
137
149
139
127
135
148
138
124
136
149
137
127
137
148
138
126
136
149
139
126
136
149
139
127
135
149
140
128
137
150
139
126
136
149
140
128
136
150
139
125
135
148
137
125
134
145
135
123
132
145
136
122
130
142
132
121
127
140
132
117
125
138
129
116
123
134
126
114
119
132
124
110
116
129
120
106
112
127
119
103
111
126
116
101
107
119
112
96
105
117
109
95
100
113
106
93
96
111
103
87
92
107
100
86
91
104
96
82
89
103
92
78
85
100
91
76
82
97
87
74
80
96
84
70
78
92
83
70
74
90
82
66
72
88
78
64
70
86
76
62
70
83
78
63
68
84
75
59
68
82
74
61
65
84
72
58
64
80
73
60
62
80
73
57
63
79
72
58
63
80
71
57
63
80
68
55
63
78
70
56
62
76
71
56
60
75
69
55
60
75
70
55
59
76
71
56
61
77
74
63
68
88
85
73
84
105
102
93
106
127
126
118
126
147
147
137
147
169
167
155
164
181
182
171
177
193
193
182
189
206
203
189
197
208
207
196
202
207
208
201
203
207
207
199
205
208
205
201
204
206
209
199
199
206
208
197
196
207
208
192
192
206
201
187
188
202
197
184
182
196
192
177
178
192
187
171
172
186
182
167
166
181
178
164
162
177
173
157
159
174
170
156
155
170
167
153
151
166
164
150
148
162
160
147
144
159
156
142
142
157
154
140
139
154
149
134
137
149
148
135
132
148
147
130
131
148
145
131
131
147
143
130
131
146
144
130
130
146
143
128
131
145
145
130
129
147
145
130
131
146
144
131
130
146
144
130
131
147
144
132
132
146
146
132
130
145
144
132
129
144
145
130
129
142
140
129
127
144
140
128
125
139
141
127
123
136
139
123
120
134
138
122
118
134
134
120
115
130
130
116
112
128
128
114
109
124
124
110
106
123
123
106
104
118
119
103
100
114
116
103
96
111
112
97
94
109
108
94
90
105
105
92
88
101
103
89
85
98
100
87
80
96
98
83
80
94
94
81
78
90
93
80
73
88
90
76
72
88
90
73
69
86
87
71
68
82
86
71
66
81
84
71
65
79
84
69
64
79
81
68
63
78
80
67
61
75
81
66
61
77
79
65
60
73
78
64
59
74
78
63
59
73
77
64
56
72
75
63
58
73
77
62
58
70
76
61
56
71
77
63
58
73
78
65
62
78
86
76
74
93
105
95
97
115
125
116
119
138
147
137
139
156
164
157
155
172
180
172
168
184
193
182
176
194
204
192
186
202
208
197
193
206
206
200
195
207
207
202
196
207
207
202
193
206
208
199
192
203
206
197
187
201
206
192
185
193
204
189
181
190
197
183
173
186
193
179
172
183
186
175
164
175
184
170
160
173
177
164
158
167
173
160
153
163
169
157
148
160
166
155
144
156
164
151
142
154
158
148
139
150
156
143
134
145
153
141
131
143
151
138
128
138
147
135
125
136
144
131
123
138
144
132
121
134
146
132
122
134
145
131
121
134
145
131
125
137
143
131
126
136
143
134
125
136
144
134
124
136
145
134
125
136
144
133
125
135
144
134
124
135
144
132
124
134
143
131
120
132
142
131
120
131
141
128
118
130
139
127
118
128
135
124
115
125
134
123
114
122
132
118
109
120
131
118
105
117
127
115
104
111
124
111
101
112
120
108
98
107
118
105
95
104
114
102
91
99
110
99
89
97
109
97
83
93
107
95
83
92
104
92
79
88
100
87
78
86
100
87
73
82
95
85
71
81
94
82
71
79
92
82
66
78
87
75
67
75
86
77
64
74
85
74
63
71
86
75
63
73
84
73
59
69
82
72
62
69
80
71
57
68
82
71
58
67
80
70
57
65
79
70
58
66
78
69
55
62
77
67
55
63
76
67
55
63
77
66
54
62
75
66
55
61
77
68
58
66
82
74
64
74
94
88
78
91
110
109
101
114
135
129
122
134
151
149
141
151
169
165
159
167
183
178
169
177
194
190
178
186
203
196
186
194
207
201
189
198
208
204
193
198
206
205
192
198
206
206
193
196
207
203
191
194
207
198
187
191
204
197
182
187
200
191
177
181
194
186
174
176
189
181
166
170
185
177
163
166
180
173
158
161
176
169
153
159
170
165
149
154
166
160
147
149
164
160
143
148
162
155
140
142
156
151
137
141
154
147
133
136
150
144
129
133
146
141
128
130
145
140
126
129
143
140
124
126
143
135
123
128
143
136
124
127
141
138
123
125
143
137
125
126
141
137
124
128
143
136
126
128
141
137
125
128
141
138
125
126
143
140
123
126
141
140
124
127
143
139
122
124
140
136
122
124
138
134
120
120
134
134
119
120
135
132
116
118
133
126
114
116
129
126
111
111
127
121
110
109
125
121
107
106
119
117
103
101
118
114
99
99
115
113
97
94
111
107
93
93
107
105
90
89
105
100
86
85
103
101
85
84
99
96
80
79
96
94
81
79
95
94
75
76
91
89
76
74
92
89
73
71
88
88
72
71
88
86
71
68
85
85
69
68
84
83
66
67
84
83
66
65
83
82
66
65
80
80
65
63
80
81
63
63
77
78
65
61
77
77
61
59
77
78
63
58
74
74
61
58
75
77
58
57
74
75
59
57
74
73
59
55
74
73
57
56
73
74
61
59
75
80
67
66
83
91
80
83
104
110
101
104
124
132
125
125
144
153
141
143
164
169
159
159
177
182
171
171
189
194
183
182
197
199
188
187
203
209
193
190
207
207
197
194
207
206
198
193
208
206
195
192
209
208
194
188
204
206
192
185
201
203
188
180
197
199
183
177
191
194
181
173
185
189
175
167
181
185
170
163
178
180
166
158
171
176
162
156
170
173
158
152
167
171
156
149
163
167
152
145
159
162
149
142
156
161
147
139
154
159
143
136
149
152
139
132
147
152
138
131
145
149
134
127
142
149
134
129
140
147
133
127
138
146
134
128
139
145
134
127
139
145
133
127
138
146
135
127
140
149
133
127
140
147
133
127
140
148
132
127
140
146
132
127
140
148
133
124
139
147
131
124
137
145
132
123
136
144
131
122
133
142
128
119
132
139
126
116
132
139
123
114
126
134
119
111
125
133
118
109
123
128
115
106
117
127
112
103
114
124
111
100
112
122
107
97
111
119
104
93
108
115
102
93
104
112
98
90
102
108
96
86
98
108
95
84
96
104
90
81
92
103
88
79
90
99
87
75
89
98
86
76
88
97
82
73
83
95
82
71
85
95
80
70
82
92
79
68
82
91
80
70
79
91
77
67
78
88
78
67
79
91
78
67
77
90
76
67
76
89
74
65
76
86
76
64
77
88
75
64
75
87
74
63
75
86
75
64
75
86
74
63
73
86
74
63
75
87
77
67
80
94
85
76
91
105
101
92
108
126
118
111
128
145
140
130
145
163
155
148
161
178
173
163
175
190
184
175
185
202
192
181
194
208
199
189
201
208
204
194
202
208
205
194
203
208
206
194
202
207
206
192
199
208
203
190
197
206
198
185
192
203
193
182
188
201
191
178
184
198
184
172
183
192
182
167
178
190
177
166
174
185
175
161
171
183
171
158
166
179
171
160
163
175
170
155
161
173
166
153
157
172
164
150
155
169
160
147
154
169
159
146
154
166
158
144
152
165
156
141
151
165
155
141
148
163
154
141
147
161
153
138
146
159
153
140
144
159
153
139
143
159
151
138
143
158
153
137
143
158
150
138
142
157
151
139
142
157
152
137
143
158
149
135
141
156
150
134
139
155
147
133
136
152
143
129
136
146
142
129
130
146
138
123
129
143
137
122
124
138
133
118
119
135
129
114
118
132
125
110
114
129
122
106
110
125
118
103
109
122
116
99
103
119
111
96
99
114
107
91
96
112
105
90
93
108
102
87
90
105
99
85
87
101
95
82
85
100
95
78
81
98
92
77
80
95
89
75
78
94
89
75
75
91
87
71
74
89
88
70
72
89
84
68
71
88
83
68
69
84
83
68
68
84
82
65
69
84
80
65
67
83
79
64
66
83
79
63
65
81
79
65
66
80
80
63
64
80
78
64
64
80
76
62
62
79
77
60
62
80
78
61
62
77
77
60
60
78
77
60
62
79
76
61
62
81
83
69
73
90
93
81
86
109
109
99
105
128
131
118
124
146
148
139
141
161
167
151
157
177
178
167
169
186
191
178
179
195
199
186
185
202
203
189
189
206
206
193
191
207
206
190
193
208
205
191
191
206
206
190
188
202
201
188
185
199
199
185
183
198
197
180
180
194
194
178
175
188
191
174
173
186
185
172
169
184
184
169
166
181
181
166
163
178
181
166
161
175
179
164
157
174
176
160
157
172
174
158
155
171
170
155
153
167
166
151
148
164
165
151
143
160
162
146
142
158
160
146
139
153
157
140
139
152
154
142
133
152
153
139
134
149
152
138
134
147
149
135
132
144
149
134
127
144
147
131
128
141
146
133
125
139
144
129
123
138
142
128
123
138
140
126
120
135
140
125
118
133
137
122
117
130
134
122
113
128
132
117
112
125
130
117
109
121
127
112
107
121
124
109
105
118
121
106
99
113
120
106
97
111
116
101
95
109
113
97
91
103
111
95
88
101
107
92
85
98
104
89
82
95
100
85
79
91
97
83
77
89
93
81
75
87
93
78
70
82
90
75
66
81
87
74
64
78
84
71
63
75
85
70
62
75
81
68
59
71
79
63
57
71
79
64
59
68
77
63
54
68
76
61
53
65
74
60
53
66
73
60
52
65
72
59
52
65
74
60
51
65
73
59
50
64
71
58
49
64
72
57
49
61
71
58
50
62
72
59
47
62
71
57
48
62
68
56
47
59
69
57
47
58
69
56
48
59
71
57
48
57
68
55
45
57
68
55
47
61
72
61
53
69
81
74
66
83
98
90
86
103
119
112
106
122
138
130
125
139
155
147
138
154
168
158
154
166
179
169
163
177
188
179
170
182
194
186
176
187
199
188
177
188
201
189
178
189
198
187
179
188
198
187
177
185
196
185
172
181
194
181
169
178
188
176
164
175
184
172
160
170
180
171
156
165
177
166
155
163
173
161
152
159
170
159
147
157
169
157
144
154
167
154
144
154
162
151
139
149
162
149
138
148
158
146
136
144
154
145
133
141
152
141
131
139
149
139
125
134
147
136
126
134
144
135
124
130
144
135
121
129
141
133
121
129
141
131
120
129
141
131
118
126
140
131
120
127
140
130
117
124
139
130
118
124
138
129
119
124
138
129
119
124
138
129
116
122
138
129
113
121
136
126
115
122
135
127
112
117
131
123
110
116
131
121
109
114
128
120
104
112
124
116
104
109
124
116
102
110
122
113
99
105
120
112
95
101
115
106
94
99
112
106
91
96
110
102
88
93
109
100
86
91
106
99
82
89
103
97
81
87
100
93
79
84
98
91
78
81
96
89
75
79
96
87
73
78
92
85
70
73
89
83
67
72
88
81
67
71
85
80
64
69
85
79
66
68
84
79
63
67
82
78
62
67
81
75
61
65
81
73
60
64
80
76
60
63
79
73
59
64
80
75
58
64
79
76
59
62
80
74
61
61
79
74
60
62
76
74
60
63
80
74
59
62
79
73
58
63
79
74
59
62
79
73
59
59
77
74
59
59
77
76
58
59
75
72
58
60
75
74
59
60
76
74
58
60
76
72
58
57
74
71
55
58
74
74
60
61
81
81
69
73
93
96
88
92
114
118
106
113
135
139
130
134
156
158
145
150
172
172
163
166
183
185
174
176
196
196
184
185
201
202
190
192
207
208
194
194
207
206
196
197
207
208
195
195
207
209
195
194
207
207
191
192
206
205
188
186
202
201
187
185
197
196
183
178
195
193
176
174
189
188
172
172
186
185
170
165
180
181
166
164
179
176
163
160
175
176
160
156
172
174
158
155
170
170
155
153
166
167
153
148
165
165
148
145
161
161
146
143
157
158
142
140
156
157
142
138
153
154
138
136
151
154
139
135
149
153
138
134
149
153
136
134
150
152
137
135
151
152
137
133
148
151
135
133
148
151
137
134
147
152
137
132
147
151
135
131
147
151
135
131
147
150
135
130
145
148
131
128
143
147
131
125
143
144
129
125
139
142
128
124
137
140
125
120
134
140
123
117
133
137
119
115
128
134
119
112
127
131
117
110
123
128
112
105
122
126
110
104
116
119
107
101
114
117
104
98
113
114
101
96
110
113
98
90
106
111
97
88
101
109
93
86
98
105
90
85
98
102
90
82
95
100
87
79
94
99
83
76
89
97
84
77
89
94
80
74
86
93
80
72
85
91
78
70
85
91
76
68
82
89
74
66
81
90
75
67
79
86
74
66
80
88
72
64
78
87
72
65
78
84
71
63
77
85
71
64
76
84
72
63
77
84
72
64
77
86
70
63
74
83
71
62
77
85
71
63
75
84
71
62
76
84
74
63
74
84
71
61
75
84
71
61
73
85
70
61
73
83
69
61
74
83
69
59
73
81
71
59
73
81
69
59
71
80
71
60
72
84
73
63
77
89
79
72
89
103
94
88
105
122
116
111
127
143
138
132
149
165
157
150
165
180
173
164
181
194
186
179
189
203
196
188
200
207
202
193
203
208
208
199
207
208
207
199
205
207
207
199
206
204
208
197
207
208
205
195
205
208
203
191
201
206
198
188
195
205
194
181
191
202
189
179
185
196
183
171
181
192
179
166
177
188
177
163
173
184
171
158
167
179
170
157
165
177
166
155
163
175
164
150
161
170
160
148
156
168
158
146
151
164
154
141
149
161
153
138
147
159
151
138
144
158
147
136
143
156
145
133
144
156
146
134
144
153
143
132
143
155
144
133
143
155
146
135
142
155
146
134
140
155
145
133
141
154
144
133
139
153
146
132
141
154
143
133
139
154
144
130
138
151
142
128
138
150
141
128
134
149
139
127
130
144
136
123
130
143
135
121
126
139
132
117
125
138
128
115
121
134
127
112
118
132
122
107
115
128
118
106
111
125
115
102
110
123
113
97
105
119
112
96
100
114
108
92
98
112
104
90
96
109
101
85
92
107
99
83
88
103
98
83
86
101
93
78
83
99
92
78
81
96
90
75
79
95
87
72
76
91
85
71
75
89
83
68
71
87
81
66
72
85
80
64
67
84
80
65
68
82
76
62
66
83
77
61
66
81
74
59
64
80
73
59
63
79
74
60
62
77
76
58
62
77
74
59
61
76
73
57
61
77
74
58
63
76
73
58
63
78
73
59
60
78
75
59
62
77
73
60
60
76
72
57
58
76
73
56
60
76
74
57
60
77
74
57
57
75
71
58
59
77
70
56
56
74
71
56
57
74
72
56
59
76
74
61
64
82
81
68
74
94
97
86
91
116
120
110
118
141
143
135
140
161
163
153
157
178
180
168
173
193
191
181
184
203
204
191
192
207
207
200
199
208
206
201
204
209
206
203
204
207
208
204
203
208
206
204
201
206
209
201
200
206
207
198
195
208
207
192
190
205
202
188
188
200
199
183
181
194
193
177
175
192
188
173
170
185
185
169
165
180
178
166
162
177
177
160
158
174
174
159
154
171
169
153
151
168
166
151
148
163
165
148
144
158
162
146
141
157
158
143
140
155
153
140
135
151
153
140
134
149
152
138
133
148
153
137
133
148
150
138
135
148
151
138
133
149
152
138
134
148
152
137
135
151
153
139
135
149
153
138
135
150
156
139
135
149
152
138
135
149
153
138
132
148
152
137
132
148
150
136
130
145
150
133
128
143
148
131
126
141
145
129
125
139
143
128
121
135
139
125
119
132
137
122
114
129
135
119
111
125
131
115
110
123
126
112
104
120
125
109
101
116
120
106
99
113
118
103
94
109
113
99
93
105
112
97
90
103
109
93
85
100
104
89
84
97
103
89
82
94
100
84
77
90
97
81
77
91
94
82
72
87
94
78
72
83
91
77
69
83
88
73
68
81
88
74
65
80
85
71
64
78
85
72
61
77
83
68
60
77
82
70
61
74
81
66
60
75
83
70
59
74
82
67
61
71
81
66
60
73
80
68
58
73
81
68
59
71
82
68
59
73
81
68
59
73
82
71
59
73
83
69
60
73
83
68
60
74
83
69
60
72
83
69
61
73
82
70
60
72
83
69
60
72
82
72
61
75
88
77
69
86
99
92
85
102
117
111
107
125
143
136
133
149
166
158
153
171
183
175
169
184
201
189
181
195
206
199
194
206
207
206
199
207
207
208
206
207
207
208
208
207
208
207
205
206
206
206
207
207
208
209
204
207
208
206
201
209
207
207
196
206
206
204
192
200
209
199
187
195
205
195
182
192
201
188
176
187
196
186
172
181
192
181
168
176
189
176
163
174
185
172
162
171
181
170
159
166
175
168
155
163
177
164
151
158
172
163
148
156
171
158
145
151
165
156
142
150
161
151
140
149
160
147
136
146
159
148
135
145
157
147
134
143
159
146
135
144
156
146
135
143
156
147
136
143
155
147
136
144
157
146
135
143
156
147
136
144
157
146
134
143
156
147
136
142
155
147
134
141
154
146
131
139
154
146
131
136
151
143
129
135
149
141
125
132
147
139
124
131
145
135
122
127
142
131
119
126
137
129
117
120
134
126
112
116
132
124
107
113
128
120
105
111
123
113
101
105
120
113
97
102
118
109
95
100
114
106
91
94
111
104
86
90
108
101
85
89
104
97
81
85
103
94
78
83
97
90
77
82
96
89
74
77
93
87
72
77
93
86
69
74
89
81
68
73
87
81
64
69
86
81
65
69
84
78
62
68
82
76
63
66
82
76
60
65
80
74
61
62
79
75
60
64
79
75
59
62
80
76
57
61
78
73
59
61
79
74
57
60
76
72
58
60
77
73
57
59
74
71
56
61
76
72
56
58
75
72
55
58
75
70
54
57
74
70
54
57
72
70
54
56
75
70
57
59
78
76
60
65
85
85
74
80
103
105
95
103
126
129
120
129
150
153
143
149
170
175
162
167
188
190
178
182
203
200
189
192
205
207
199
201
206
207
205
204
207
206
207
209
206
206
209
205
207
206
207
206
206
209
207
204
208
208
203
202
209
206
200
198
206
207
197
193
205
206
191
191
204
201
187
185
199
197
181
179
195
193
177
174
189
188
174
170
185
186
168
166
183
181
165
164
178
177
163
160
175
176
161
158
174
172
157
154
170
171
154
149
167
168
150
147
161
165
147
144
159
161
144
140
158
159
143
140
156
155
142
138
153
154
142
136
151
156
137
135
152
152
138
137
149
154
137
134
151
152
138
135
151
152
137
134
151
153
137
135
149
152
138
133
150
152
138
134
148
153
135
130
148
150
135
131
146
149
134
129
145
148
132
128
143
144
131
126
140
145
128
121
137
140
126
120
135
139
121
116
131
136
120
114
129
130
117
109
124
130
113
108
121
125
110
102
118
121
108
99
116
119
103
97
112
116
99
92
109
112
95
89
103
109
94
87
101
105
89
83
98
102
87
80
94
97
85
79
91
98
82
74
89
95
79
71
85
90
77
70
83
89
73
66
81
88
72
64
79
87
69
62
76
81
69
60
77
82
65
60
74
80
66
58
71
78
64
56
70
75
63
54
70
77
64
54
68
77
63
54
68
77
60
52
66
75
63
53
67
73
62
53
67
75
62
52
67
74
61
53
66
75
61
51
66
73
59
51
63
73
59
50
62
72
59
50
63
72
59
50
64
72
58
48
61
71
57
48
62
71
59
50
64
74
63
55
70
83
72
66
84
100
92
88
105
123
117
114
131
148
141
136
155
170
160
156
171
186
178
172
187
201
188
182
198
208
200
195
204
205
207
197
206
206
207
201
208
206
207
203
207
206
209
205
207
206
208
200
209
208
207
199
209
207
205
194
204
208
202
192
200
207
196
187
195
204
191
181
192
202
187
175
186
196
184
172
182
193
178
166
177
188
176
163
172
183
173
159
171
181
168
156
167
177
165
156
162
174
164
150
160
170
161
147
157
169
156
144
153
166
154
142
149
162
152
138
147
160
148
136
144
158
147
137
144
155
147
134
141
153
147
133
141
154
144
132
139
154
144
133
140
152
146
131
138
154
144
130
140
154
143
131
140
154
145
131
140
152
145
130
137
152
143
129
137
150
141
130
135
148
140
127
134
147
137
123
133
144
136
124
131
142
134
120
127
140
131
119
125
139
130
117
122
136
127
113
120
132
123
110
116
130
120
109
111
126
117
102
108
122
115
101
105
119
113
97
103
116
109
96
99
113
104
90
96
110
102
88
93
105
98
84
89
104
97
82
85
100
94
81
84
97
92
76
79
94
88
74
79
95
86
72
75
91
82
69
73
89
81
66
71
86
79
66
68
85
77
62
66
82
74
61
64
80
73
61
64
81
72
58
62
78
72
57
63
78
74
58
61
77
71
57
59
75
70
54
59
76
71
56
60
76
70
54
57
74
69
54
59
75
69
55
57
74
68
53
56
73
69
55
56
73
68
53
56
72
69
54
56
71
69
53
55
72
68
52
54
71
68
50
54
70
70
52
55
74
71
57
62
79
78
68
74
96
97
87
95
118
121
113
117
143
147
137
141
162
167
155
159
179
184
171
175
194
195
182
187
204
205
194
193
207
207
199
201
209
207
203
204
208
207
205
205
207
209
205
206
210
208
203
204
206
207
202
200
207
207
196
197
208
206
193
194
208
203
188
188
202
201
185
183
197
194
177
177
191
190
176
173
188
185
168
169
183
180
165
164
181
178
163
160
173
176
160
157
173
172
155
154
170
168
152
150
164
165
150
146
161
161
147
144
156
158
144
140
155
155
138
141
153
153
138
135
151
151
138
134
150
151
137
131
147
151
136
133
147
149
136
131
148
151
135
132
147
150
135
131
147
150
136
131
149
149
136
132
147
149
136
131
147
151
135
130
146
150
134
131
144
148
133
128
144
147
130
128
142
144
130
126
142
142
127
124
138
140
126
120
135
139
124
120
133
136
122
117
130
133
117
113
126
129
113
109
125
127
111
107
121
123
108
101
117
123
107
100
114
117
102
95
110
114
99
92
107
112
96
90
104
108
93
86
102
106
90
83
97
102
89
80
96
98
83
76
90
98
82
76
89
95
80
73
87
91
76
69
84
88
74
68
81
87
73
65
79
84
71
63
78
84
70
61
76
82
67
59
74
80
67
56
72
79
65
56
71
77
64
56
71
77
65
56
69
77
63
55
67
75
61
54
69
76
61
53
68
74
60
52
65
74
61
55
66
75
60
53
67
75
60
53
66
74
62
51
65
74
62
53
66
76
62
51
66
74
60
51
64
72
60
50
64
72
60
50
65
73
61
52
63
75
62
54
67
81
68
62
80
93
84
80
98
112
106
103
122
137
132
128
143
160
152
146
164
179
170
164
180
192
182
178
193
205
196
187
201
207
202
193
205
208
207
200
207
206
208
202
208
207
208
201
207
207
207
202
209
208
208
199
207
205
206
197
205
207
204
191
199
207
198
188
197
207
196
183
189
199
187
177
188
196
185
173
183
193
180
167
178
186
175
163
173
184
173
159
168
181
169
158
165
175
163
154
163
173
162
148
159
170
159
146
155
168
155
143
151
162
152
140
149
160
149
137
145
157
148
132
141
155
145
131
140
153
142
131
138
153
143
131
140
150
142
130
138
153
143
130
141
152
141
132
138
154
144
131
138
150
143
131
138
153
143
129
137
152
143
131
137
151
140
129
138
152
141
127
136
147
141
128
136
147
139
126
132
145
136
124
130
143
135
121
128
142
135
119
126
139
129
116
123
136
128
113
118
132
126
110
117
130
120
107
112
128
119
103
109
124
116
101
106
120
111
98
103
117
108
95
99
115
105
90
95
111
104
88
91
107
99
87
91
106
97
81
87
101
93
80
84
100
91
76
81
96
88
72
77
92
87
70
74
90
82
68
73
87
80
65
71
86
79
63
69
85
78
62
67
82
75
61
65
80
74
61
62
80
73
59
62
78
72
57
59
74
70
56
62
76
72
55
61
75
70
54
59
75
71
56
59
75
70
56
60
77
70
57
57
75
70
55
58
74
69
54
57
73
70
53
57
74
69
53
58
74
71
55
59
75
69
54
56
73
69
54
57
74
70
53
56
71
70
55
57
74
69
55
58
77
75
63
68
89
90
79
83
106
109
97
106
130
134
123
131
153
155
144
150
172
173
164
166
187
186
175
180
199
198
188
191
206
208
195
197
207
208
201
202
208
208
203
205
206
209
205
205
208
206
203
203
207
206
199
201
206
206
198
195
208
206
195
193
206
206
190
189
203
203
185
184
198
196
181
179
193
191
176
172
191
187
172
169
185
185
168
166
182
179
164
161
175
174
160
156
174
173
157
156
170
170
155
154
168
167
151
146
164
163
147
144
161
160
144
140
156
156
142
139
153
155
139
136
152
152
140
136
152
152
138
135
149
152
135
135
148
152
137
133
150
152
138
134
150
153
137
133
150
152
138
135
149
152
138
134
151
153
138
135
149
151
138
134
147
151
138
133
149
151
138
132
149
149
134
132
146
149
134
128
145
148
132
127
141
144
130
124
140
142
128
121
136
140
123
120
134
136
121
115
128
133
117
112
127
131
116
110
125
126
113
108
122
126
110
105
117
120
105
100
113
119
102
98
111
116
102
93
108
112
97
90
105
109
95
85
102
105
90
84
97
104
89
83
97
100
86
79
95
96
83
76
90
95
80
74
88
94
79
73
87
92
77
69
84
91
76
68
83
88
74
66
79
87
72
65
78
86
72
64
78
85
71
64
79
84
68
63
78
82
69
63
77
84
70
63
76
82
68
63
76
84
71
59
76
83
69
61
76
85
71
64
75
83
70
62
76
84
71
62
74
84
70
59
73
82
69
61
74
83
68
60
73
81
68
61
73
83
70
63
75
86
76
70
84
96
86
82
97
112
106
102
119
135
127
123
140
154
147
144
159
173
165
161
177
189
180
174
189
201
191
185
201
208
199
192
206
204
205
197
208
209
207
202
209
207
206
202
207
207
207
202
207
207
209
200
206
205
207
197
206
206
205
192
203
206
200
190
200
207
197
186
196
206
192
181
191
201
189
177
186
195
185
173
182
193
181
168
179
189
177
166
174
186
174
163
173
185
172
162
171
181
172
159
169
179
169
158
167
175
163
152
161
174
162
151
158
171
158
147
154
167
154
144
155
165
154
142
151
163
151
139
149
161
149
137
147
158
150
136
145
159
150
137
145
158
147
137
144
156
146
135
145
155
148
135
142
155
145
132
142
155
147
133
142
153
146
131
140
153
143
131
139
151
142
129
137
149
140
128
136
149
139
126
133
147
136
125
131
145
136
121
128
142
132
118
124
140
130
115
122
138
126
113
119
131
124
109
116
127
121
107
114
126
116
104
109
124
114
101
106
120
111
96
102
117
110
94
99
114
106
92
96
110
102
87
93
107
100
86
91
107
99
83
91
103
95
81
85
99
92
78
84
97
90
75
82
95
87
74
78
93
87
71
76
93
85
70
75
88
81
68
72
88
80
66
72
89
80
66
71
86
80
62
68
83
78
63
69
85
78
63
68
82
77
63
67
80
77
61
65
82
74
61
65
80
75
61
63
81
75
60
63
78
74
59
62
78
72
58
60
77
70
58
60
76
71
57
61
77
73
57
60
76
72
58
62
81
79
66
71
93
89
80
88
108
110
102
110
131
133
122
128
151
152
142
148
166
167
156
161
180
181
170
175
192
192
179
183
199
199
185
188
204
203
190
195
207
208
194
195
208
206
194
196
208
208
196
194
209
206
190
192
206
203
189
190
204
202
184
185
200
197
181
180
195
191
176
178
190
188
173
172
188
186
171
169
183
183
169
166
180
179
163
162
180
176
161
161
177
174
159
159
175
172
157
156
171
170
153
153
169
167
152
152
166
165
148
146
163
161
146
145
161
155
141
141
155
156
141
139
153
152
138
136
152
150
136
135
150
148
134
133
147
146
135
132
146
145
131
130
146
147
133
128
146
145
131
128
143
145
129
128
142
144
131
127
142
144
128
125
140
142
126
125
142
143
127
125
140
138
125
124
136
139
123
122
135
138
120
116
132
135
119
116
132
133
116
113
129
131
115
111
125
127
112
108
123
124
112
105
120
121
106
102
116
120
106
101
114
118
101
96
110
112
100
94
107
111
97
91
104
109
92
88
101
105
90
84
99
102
87
82
95
100
84
79
93
98
84
77
91
94
82
74
90
91
78
72
86
91
76
70
84
87
73
67
81
85
72
67
81
85
70
64
79
83
70
63
77
83
67
62
77
81
66
61
75
80
67
63
76
83
67
60
76
81
67
61
76
81
68
61
74
81
67
61
75
82
69
61
77
82
69
62
77
83
69
62
76
82
68
61
77
82
69
61
74
83
67
60
75
82
69
62
75
82
67
58
74
80
68
60
74
84
70
60
76
83
71
65
81
91
80
75
92
105
97
93
111
126
118
115
131
145
138
133
151
164
154
150
168
178
169
165
179
191
182
175
189
200
188
182
196
207
197
188
200
207
200
192
202
207
201
190
203
208
199
193
203
207
199
187
200
207
196
184
197
204
191
182
193
201
188
176
188
197
185
173
184
193
183
169
180
190
176
165
177
186
175
163
173
182
171
162
170
180
167
158
166
177
167
155
165
176
164
153
164
172
159
150
161
171
160
145
159
167
156
144
155
164
152
141
149
163
151
137
149
158
147
137
148
156
145
134
144
156
143
132
143
153
140
132
142
151
139
130
141
151
139
129
141
149
139
129
137
150
139
128
138
150
137
129
138
150
140
127
135
148
137
125
137
147
137
127
133
146
135
123
132
145
135
123
133
143
132
122
130
141
130
119
128
141
131
116
124
138
129
114
121
137
126
113
120
131
122
111
118
131
121
108
115
129
118
106
114
125
115
102
109
122
112
97
107
119
110
96
104
116
106
94
101
115
104
92
98
111
100
87
96
108
99
86
92
107
97
83
90
103
94
82
87
101
93
79
84
99
90
77
83
97
90
76
80
96
86
73
78
92
86
71
77
91
83
69
76
90
82
68
74
89
82
67
71
88
81
66
70
86
79
65
71
85
78
63
68
84
76
64
67
84
76
62
68
82
76
62
67
84
76
63
67
82
75
60
66
82
76
61
66
81
75
59
66
82
76
59
66
79
76
59
65
79
74
60
64
80
73
60
61
78
73
58
64
79
71
57
59
76
72
57
60
75
71
56
59
76
72
58
63
81
75
63
71
89
87
76
85
104
104
94
103
123
123
115
120
143
144
133
139
160
161
148
154
174
172
162
166
185
182
171
176
191
190
177
180
200
196
182
186
199
199
185
188
203
202
186
188
201
198
185
186
203
201
185
184
199
197
183
183
195
191
178
179
192
189
176
175
189
187
172
170
184
183
168
167
182
178
165
166
179
176
161
160
175
172
158
158
176
171
156
156
171
168
155
155
168
168
151
151
167
164
148
148
164
161
145
146
160
159
143
143
158
155
140
140
151
153
138
135
152
152
135
132
150
146
134
133
147
146
134
132
145
144
131
130
145
144
130
128
144
144
126
127
144
141
129
128
142
142
127
126
142
142
127
126
143
142
126
126
142
142
126
123
140
140
127
125
139
139
124
121
139
139
124
120
135
135
123
119
135
133
120
118
132
132
118
115
132
131
115
113
127
129
114
111
124
126
112
109
123
124
109
104
119
121
106
103
117
119
104
102
115
118
102
98
113
114
100
95
108
113
98
94
109
109
94
91
106
110
94
90
103
105
91
87
102
105
89
87
99
103
88
83
97
102
86
82
98
101
85
80
99
100
85
79
94
98
85
79
92
97
83
80
93
97
80
76
93
97
82
78
91
97
82
77
90
94
80
75
90
96
81
73
90
94
80
73
89
93
81
74
90
94
80
74
89
91
79
73
88
95
81
73
89
94
80
73
87
93
78
71
87
93
78
72
86
92
79
71
87
90
76
70
85
91
77
69
83
89
78
68
82
89
76
66
82
88
74
67
80
88
74
68
82
86
76
70
84
93
81
74
92
100
91
88
104
116
107
104
120
133
122
119
137
150
138
134
151
162
154
149
165
174
163
157
175
182
172
168
184
192
180
174
187
196
184
179
192
201
191
182
195
201
190
181
194
203
191
182
193
200
189
181
191
199
186
178
190
196
185
177
187
195
182
171
185
193
181
172
180
190
177
168
179
188
174
164
176
184
172
161
171
180
170
160
171
181
166
157
167
176
164
155
165
173
164
152
162
170
161
149
158
168
156
145
155
164
149
140
151
160
150
138
148
156
143
133
143
152
142
129
141
150
137
126
138
147
135
122
135
146
133
122
134
143
131
122
132
143
132
122
133
143
130
120
131
142
132
121
131
143
130
121
131
143
134
123
130
145
132
122
135
144
133
122
132
144
134
124
133
144
131
122
131
141
133
120
131
142
131
119
127
140
128
118
127
139
128
116
126
138
125
114
121
132
125
112
122
135
123
112
118
131
119
108
115
127
117
105
113
125
115
102
109
122
112
101
109
121
110
97
105
117
105
95
102
113
104
90
98
110
100
87
94
105
96
85
91
103
94
79
88
100
92
78
85
98
90
75
84
97
87
74
80
92
85
71
78
92
83
71
78
92
84
71
77
91
85
71
77
92
84
71
80
93
85
73
79
95
86
74
79
94
87
74
82
95
87
73
79
95
86
75
80
94
87
73
80
93
86
70
77
92
83
70
75
91
80
70
74
90
82
66
74
87
79
64
71
85
78
63
68
83
76
61
65
81
72
58
63
78
70
57
61
76
67
57
60
74
67
54
58
74
66
54
59
76
69
57
63
80
76
65
73
93
93
83
93
114
112
104
113
135
132
121
133
153
150
140
151
168
166
154
162
181
180
166
172
187
187
175
181
198
194
180
183
201
197
184
187
203
199
185
188
204
198
183
186
203
197
183
185
199
195
182
180
195
191
177
179
194
187
172
173
189
183
169
170
184
180
166
167
180
178
162
161
178
172
158
161
175
171
155
159
174
169
155
156
170
168
153
155
169
166
151
153
168
164
151
150
165
162
146
148
162
161
145
144
160
157
143
142
156
155
141
140
154
151
138
137
152
150
136
136
151
146
133
135
150
146
131
132
148
146
131
131
147
146
131
128
145
143
129
130
145
142
129
129
143
142
129
127
144
141
126
127
142
141
127
127
142
140
127
125
140
138
125
125
139
137
123
122
139
136
121
120
136
133
120
118
133
134
119
116
132
130
114
114
128
129
115
111
127
127
113
109
123
125
109
107
122
120
106
105
121
118
103
102
115
117
104
98
113
115
99
96
110
112
98
93
108
110
94
92
105
107
92
88
102
102
88
85
100
103
88
84
98
97
82
80
96
96
82
78
93
93
79
75
91
92
77
74
89
89
73
72
86
89
75
70
84
85
72
67
81
85
71
66
80
83
69
64
80
80
67
63
79
81
68
61
78
80
64
60
75
77
65
60
76
80
67
60
76
79
64
58
73
79
62
58
72
77
63
57
73
76
63
58
73
78
63
57
74
76
61
56
71
75
61
57
70
75
61
56
69
75
59
54
70
75
60
54
69
73
59
54
68
74
59
54
69
73
59
53
70
76
64
59
75
83
73
70
88
102
90
88
108
120
111
107
127
136
128
126
143
153
145
143
161
167
157
155
171
180
169
162
179
189
177
171
187
193
180
176
191
199
185
179
194
202
186
180
194
198
186
179
191
198
186
179
191
197
183
174
187
195
180
173
184
191
178
168
180
187
173
163
175
182
169
162
173
178
164
156
169
177
162
154
164
175
161
149
162
170
156
150
160
166
153
146
158
165
153
145
156
164
150
141
153
162
149
139
148
157
146
137
149
156
142
134
145
154
141
130
141
149
138
128
140
148
135
126
138
148
135
126
136
143
133
126
135
145
132
122
134
142
132
122
132
142
131
122
133
142
130
120
130
143
131
121
132
142
130
120
131
142
130
121
131
140
128
120
130
139
127
118
129
141
129
118
127
136
124
114
127
135
123
114
125
134
122
113
123
133
122
112
121
130
119
108
114
128
116
107
116
125
114
102
111
123
111
100
111
119
109
96
107
118
105
95
105
114
101
92
101
112
102
89
99
110
97
87
95
106
97
85
93
105
93
83
91
101
90
78
87
100
88
78
86
99
86
73
82
96
84
74
82
93
83
70
78
91
80
68
76
89
79
67
76
87
78
64
73
86
76
64
72
85
76
62
71
83
75
62
69
84
74
63
70
84
73
60
69
82
75
59
70
82
72
60
67
80
72
58
66
82
71
60
67
82
71
60
65
80
71
59
65
79
72
59
67
81
72
58
66
80
72
60
66
80
72
60
66
81
72
57
64
77
70
56
64
79
71
58
64
78
72
58
65
81
74
62
72
88
84
74
84
106
102
92
104
123
120
113
123
144
140
131
140
160
155
146
156
173
168
157
168
185
180
169
176
193
189
175
182
200
193
181
189
205
198
184
189
207
199
186
190
203
197
187
190
203
197
185
189
202
194
182
186
199
191
177
181
196
189
174
179
191
185
171
174
185
181
168
170
182
176
163
164
179
176
159
162
177
171
158
160
173
168
153
156
171
164
151
156
170
163
149
152
168
162
147
150
164
159
143
148
160
156
143
144
159
154
138
141
156
151
135
137
152
148
135
137
150
145
133
135
148
143
132
133
147
144
129
132
147
142
129
131
145
142
126
129
148
143
129
130
145
141
130
129
146
143
127
130
145
141
127
131
146
142
129
127
145
142
126
129
145
140
127
128
143
139
126
127
144
140
123
126
141
137
124
125
139
138
121
122
137
136
120
120
137
133
117
117
134
131
115
117
131
131
114
115
130
126
111
112
125
125
110
110
124
122
107
106
123
120
105
104
118
118
102
101
116
114
100
100
114
113
97
95
112
109
95
92
108
107
93
90
107
106
90
89
104
101
87
86
104
102
86
83
99
99
81
80
96
97
82
82
95
97
80
79
95
94
79
78
91
92
77
74
89
91
75
73
89
88
74
72
89
88
74
71
88
88
74
73
89
88
74
70
86
88
73
69
86
87
73
67
86
86
71
69
85
86
70
67
84
85
72
66
84
84
70
66
83
84
69
65
83
84
70
66
83
84
67
66
80
82
69
66
83
87
72
70
86
91
80
77
98
104
95
94
114
121
112
113
134
141
130
130
152
158
144
146
165
170
160
157
176
183
172
167
187
191
180
178
191
196
184
181
199
202
189
184
199
204
191
186
201
204
191
185
199
203
190
185
198
199
187
182
194
199
184
178
190
193
180
175
188
191
178
170
185
188
173
165
177
183
170
163
176
181
164
160
172
174
161
154
168
172
159
153
164
169
155
151
163
168
153
146
160
164
150
143
157
162
148
142
156
161
144
139
151
157
143
137
151
155
142
134
147
153
138
131
143
151
137
131
142
148
136
127
142
148
132
126
140
148
135
125
140
147
132
125
139
146
131
125
139
147
132
125
139
146
132
126
139
144
133
125
139
147
134
126
137
147
132
125
138
146
133
124
139
145
133
123
136
143
132
123
136
143
131
122
134
142
126
122
132
141
127
120
130
137
125
116
128
137
122
115
127
134
122
111
124
132
120
109
123
129
117
107
118
129
114
106
116
126
111
102
115
123
111
102
112
119
108
97
109
118
106
96
105
114
102
92
102
113
99
90
99
111
97
87
99
108
95
84
95
105
93
82
94
104
90
81
92
102
90
79
90
101
88
77
89
100
87
77
87
99
87
76
86
96
84
73
83
96
83
70
82
92
83
70
82
92
82
70
81
93
81
69
80
91
81
71
79
94
79
68
80
91
78
67
78
91
78
67
78
89
78
67
77
89
76
67
78
88
77
67
75
89
78
68
78
92
84
73
86
101
95
86
102
118
112
106
121
138
132
124
139
155
147
141
157
172
165
157
168
184
176
167
178
191
185
176
187
201
193
183
191
204
197
187
193
208
200
187
196
208
201
189
199
209
200
188
194
206
197
184
193
203
194
181
188
201
190
177
184
198
187
175
180
192
182
170
177
188
179
168
174
185
177
163
169
182
171
159
167
179
168
156
163
176
167
152
161
174
164
154
158
172
161
150
157
170
162
148
153
167
159
145
152
164
155
144
150
161
151
138
143
157
148
136
142
156
147
133
140
154
147
133
138
151
141
130
136
152
142
129
134
149
142
129
134
148
140
127
133
146
141
126
134
147
139
126
132
148
140
128
131
145
140
126
132
147
138
126
131
144
139
124
129
145
138
126
129
142
137
123
128
142
137
124
127
141
133
120
124
137
133
119
124
139
129
115
121
134
128
113
118
133
127
112
115
131
124
111
112
128
121
106
108
123
119
104
107
122
114
101
104
117
112
97
101
116
110
96
100
114
109
94
95
112
104
90
93
108
101
87
90
104
99
85
86
103
97
83
84
99
95
80
82
98
91
78
81
97
91
77
81
96
91
75
77
94
89
73
77
91
88
72
75
90
85
71
73
89
85
70
72
88
83
68
71
85
83
68
69
87
81
66
69
85
81
66
66
84
79
64
66
82
78
63
64
82
78
62
65
81
78
61
62
80
76
61
64
81
79
64
66
83
83
70
73
92
95
84
90
109
112
103
107
127
130
120
126
145
149
137
143
163
165
153
157
176
176
164
168
185
186
177
177
194
194
181
182
200
200
186
186
202
201
187
186
203
203
188
189
205
202
187
183
201
200
185
183
198
195
182
180
196
193
177
178
192
191
174
173
187
186
172
169
183
182
168
164
179
180
164
161
175
175
162
158
173
174
157
156
169
169
156
152
168
166
152
151
166
166
151
147
164
164
148
145
159
161
147
142
156
157
142
140
154
155
139
138
152
152
135
134
148
149
133
132
147
146
133
129
145
146
130
127
142
144
130
125
143
143
128
126
142
144
128
124
140
142
127
124
142
142
126
125
140
141
128
124
140
140
126
124
139
139
126
122
140
140
126
123
138
141
126
122
136
138
123
121
135
136
122
118
132
137
121
117
131
133
119
115
131
130
116
115
128
128
115
110
125
125
111
108
124
126
111
105
118
122
109
103
117
119
103
100
114
118
102
97
111
115
100
93
108
113
99
91
106
110
94
90
104
108
92
88
101
103
90
85
101
102
88
82
94
101
85
80
93
99
84
78
91
95
83
75
89
94
80
74
89
91
77
71
86
93
76
71
85
90
76
69
84
87
75
67
81
87
75
68
81
85
72
67
80
85
71
65
81
84
69
65
79
83
70
62
78
82
68
62
76
83
68
59
75
81
67
62
74
81
66
60
73
79
65
59
74
81
67
61
77
85
72
67
83
95
83
82
100
110
101
97
116
129
121
118
134
147
140
135
152
161
154
148
165
178
168
160
176
187
176
169
185
196
184
176
191
200
189
180
193
202
191
182
195
204
192
182
194
204
189
181
195
200
187
179
193
199
184
176
187
196
181
171
184
191
178
170
179
187
173
168
177
184
170
162
173
180
168
158
169
176
163
156
165
173
162
153
162
172
160
150
160
169
157
148
158
166
155
146
155
164
153
141
156
162
150
138
151
160
146
137
150
157
143
134
144
153
141
130
141
152
139
128
139
149
136
127
138
147
134
126
137
144
135
124
135
146
134
122
133
146
133
122
135
143
132
122
132
144
132
123
134
142
133
123
130
144
132
120
131
142
132
118
130
142
131
119
128
142
131
117
127
139
128
117
127
136
125
116
127
138
126
113
124
132
121
113
121
133
122
109
119
130
119
107
118
128
117
105
116
127
115
102
111
122
112
100
109
122
111
98
108
120
107
95
104
118
106
93
102
112
102
89
98
109
100
89
95
108
96
85
95
104
95
83
92
103
93
81
90
102
92
80
86
99
88
77
84
96
86
74
82
96
86
71
83
94
84
70
81
93
83
71
79
92
81
70
76
90
78
67
75
90
78
66
75
88
78
66
75
85
77
65
73
86
77
65
74
86
76
64
73
86
75
64
70
84
74
63
70
82
74
60
68
81
73
61
68
80
73
57
66
79
72
59
66
80
73
60
65
84
74
62
69
87
80
70
79
98
95
83
96
114
111
103
114
133
129
122
134
149
146
140
148
164
161
153
161
179
175
161
171
189
184
172
180
196
190
177
184
200
195
181
187
203
196
181
190
203
195
184
188
202
195
181
185
199
193
178
184
197
188
177
180
192
185
172
177
188
180
168
171
185
179
164
168
183
176
160
164
179
172
156
160
175
170
155
157
172
164
153
158
170
162
150
154
169
163
149
153
166
160
146
150
163
158
144
146
161
155
140
144
158
152
137
141
155
150
135
137
153
147
131
137
149
143
131
134
147
142
129
132
148
141
127
130
145
137
128
130
143
141
126
127
143
140
126
129
143
138
125
129
142
138
123
127
144
138
124
127
140
137
123
126
143
137
122
125
139
135
122
124
140
136
121
121
138
135
119
120
138
134
117
118
135
131
116
117
132
130
113
117
130
126
111
114
127
123
109
110
125
123
108
109
123
119
102
105
121
118
102
103
119
115
98
99
115
113
97
97
112
109
95
95
111
108
92
91
107
105
88
91
104
101
87
88
103
99
84
85
100
99
83
82
98
95
82
81
95
94
80
79
94
93
77
76
93
91
74
75
90
89
73
72
88
88
72
71
88
87
70
70
86
84
71
68
84
83
69
67
83
84
68
69
83
82
67
67
84
82
67
66
82
80
65
65
83
80
66
66
79
80
65
65
80
80
64
63
79
78
63
63
78
78
63
63
78
79
63
62
78
77
64
61
78
76
64
59
77
78
62
61
78
78
66
65
82
85
74
75
97
101
91
92
113
119
109
112
132
138
129
131
149
155
145
148
164
169
158
159
177
181
169
170
189
190
179
178
194
197
184
183
197
202
187
184
199
201
189
185
201
201
189
186
198
200
187
182
196
199
184
180
196
197
182
178
190
191
179
173
187
188
173
169
183
185
169
165
178
180
166
161
174
176
161
159
172
175
157
154
169
173
156
152
166
169
156
150
165
168
153
148
163
165
151
147
159
161
146
142
156
161
145
140
153
156
143
136
153
154
138
135
146
150
137
133
147
148
135
130
144
146
132
129
143
146
132
126
142
145
131
127
140
144
131
126
140
145
130
124
141
144
127
124
139
142
132
125
138
143
129
124
138
143
128
123
136
142
129
123
135
141
127
121
135
141
127
121
132
140
122
118
132
137
123
116
131
135
120
114
129
133
118
112
125
131
116
109
123
127
115
108
121
125
113
106
118
124
107
101
113
121
106
98
114
118
103
95
109
116
101
92
107
114
98
91
103
109
96
90
103
109
93
86
99
104
90
82
94
101
90
80
94
101
88
79
94
99
84
76
88
94
82
73
87
94
80
73
85
90
76
69
82
90
77
69
80
88
74
64
79
87
72
65
75
83
73
62
76
84
72
62
74
83
67
59
74
82
68
63
74
81
70
59
72
79
66
59
70
80
67
58
70
79
66
58
70
78
66
57
69
80
66
57
69
79
66
56
69
79
66
55
69
78
65
57
71
79
66
56
69
79
64
57
67
78
65
56
68
77
62
56
65
77
65
56
66
77
64
54
67
79
70
62
76
90
83
75
94
109
104
99
115
129
123
119
136
151
142
137
154
167
159
153
166
181
173
165
179
190
183
176
188
201
191
182
195
206
196
189
199
207
199
190
199
207
199
188
198
207
201
189
198
207
196
185
196
206
196
182
193
203
190
179
186
199
186
175
185
193
182
170
178
189
179
169
175
185
174
162
171
182
170
158
168
181
166
155
166
177
166
155
163
172
163
152
161
171
163
152
159
169
160
148
156
167
155
146
154
166
153
142
150
162
150
137
148
159
148
136
144
157
146
133
143
152
144
133
142
153
143
130
140
152
143
131
137
150
140
131
139
151
139
130
139
149
140
128
139
150
141
128
135
148
141
129
138
149
140
128
136
150
139
129
133
146
139
125
135
148
136
124
135
146
136
124
131
144
136
123
129
142
136
120
127
141
132
118
127
139
129
117
123
137
128
114
121
133
126
112
117
131
122
110
117
130
120
108
114
126
117
104
108
121
116
100
106
118
112
99
103
116
108
93
102
116
104
92
97
111
102
89
96
110
98
87
92
105
99
85
89
103
95
81
88
102
94
80
84
98
92
79
82
96
89
74
80
94
86
73
78
92
85
70
77
91
85
70
76
90
82
67
74
87
80
69
72
86
81
65
72
86
80
66
70
84
79
65
69
85
78
64
70
85
76
63
66
83
76
63
67
83
74
61
65
82
74
61
65
80
74
61
66
81
76
62
66
81
75
61
65
81
76
60
64
80
73
59
61
79
73
57
63
78
73
59
62
77
73
59
62
77
73
58
61
78
76
61
67
86
82
71
78
98
100
89
96
118
120
110
120
139
140
130
141
160
157
148
156
175
174
164
170
188
186
175
179
199
198
182
188
203
203
188
193
207
207
194
196
206
205
194
199
209
207
194
196
209
207
195
196
207
205
188
191
206
201
188
186
200
198
182
183
197
190
176
178
193
189
173
172
185
183
169
167
182
179
165
164
178
176
163
160
175
174
157
159
173
170
156
155
171
167
153
154
169
163
149
150
165
161
149
147
164
159
144
146
160
155
142
144
157
153
141
140
155
149
136
138
151
150
134
135
152
148
133
134
149
149
134
132
149
146
132
133
147
148
132
130
148
147
132
133
147
147
133
131
146
147
132
132
147
147
132
131
147
145
131
132
147
145
132
131
146
146
132
131
146
145
129
129
146
144
130
126
141
142
129
125
141
141
125
125
139
139
122
120
136
138
123
119
134
132
119
117
133
130
116
114
128
129
113
109
124
125
111
108
121
122
107
105
118
120
105
101
116
117
103
97
112
113
99
97
110
110
94
91
107
108
93
89
105
105
88
86
102
102
87
84
98
100
85
79
96
98
83
81
94
94
80
76
93
93
78
76
91
91
76
72
89
91
77
71
86
87
72
71
85
87
71
66
82
86
71
68
82
84
70
66
81
85
70
65
81
83
68
64
79
83
67
64
79
84
70
65
80
82
68
63
79
82
68
64
78
83
67
64
78
82
67
63
78
81
66
61
77
82
69
62
75
81
65
61
76
82
67
62
76
82
66
62
77
81
65
61
75
84
69
66
85
91
80
78
98
105
96
97
118
128
120
120
139
147
139
139
157
167
158
156
174
182
174
172
188
196
185
182
198
206
195
191
207
208
201
195
208
206
205
198
209
208
205
199
207
206
206
199
208
208
204
197
207
207
198
194
208
208
195
189
201
205
192
183
195
201
186
179
191
195
182
173
186
192
179
170
182
188
174
165
175
182
169
162
175
181
164
159
173
177
163
159
170
174
160
155
165
171
158
153
164
169
158
147
160
168
154
146
156
164
149
143
153
162
148
140
152
158
143
136
150
153
141
134
147
153
137
133
144
149
137
132
142
150
137
128
140
150
137
127
141
147
134
128
138
148
135
128
138
147
135
125
140
146
135
127
140
146
132
124
137
145
133
126
137
145
132
124
135
144
132
122
133
141
130
119
132
140
128
119
131
138
126
117
128
138
125
115
126
133
123
113
124
131
120
110
119
131
118
107
119
129
115
104
116
125
112
102
113
121
108
100
110
119
106
96
106
116
103
91
101
114
101
89
100
109
97
88
96
106
93
82
92
105
92
79
90
100
87
77
88
99
87
73
85
95
83
71
83
91
79
70
81
90
78
67
79
88
77
63
74
87
75
63
74
83
73
60
70
83
71
61
70
80
69
58
69
79
70
57
67
81
68
56
68
77
69
55
64
77
67
54
66
77
65
54
64
76
66
55
66
75
65
55
63
76
64
52
63
75
64
52
61
76
65
53
62
75
65
51
63
74
64
51
60
72
64
48
58
73
61
50
59
73
61
50
61
75
68
58
67
82
76
68
81
100
95
87
103
122
118
113
126
145
140
135
147
165
161
151
164
181
176
168
177
195
187
180
189
202
197
187
196
208
204
192
201
208
208
196
204
207
207
197
204
207
208
198
205
207
208
195
203
206
204
190
197
208
200
188
193
204
197
183
190
201
193
179
184
195
188
173
179
191
183
167
172
185
178
165
169
182
174
160
167
179
170
157
162
176
166
153
158
172
164
148
156
170
161
146
153
167
159
146
150
162
156
141
147
158
151
137
144
157
149
135
141
154
148
132
137
151
143
129
134
151
144
127
133
149
140
128
132
147
141
126
132
146
140
127
130
147
141
125
132
146
140
125
130
145
140
126
130
145
138
124
128
147
141
124
128
144
138
125
128
144
138
123
128
142
135
123
127
142
134
123
126
139
134
119
123
138
132
119
123
135
129
115
119
132
127
112
117
131
124
113
115
128
122
108
110
128
121
106
107
122
117
103
104
120
113
100
102
115
111
96
97
112
106
93
94
111
105
91
93
108
101
88
89
105
99
83
85
99
96
79
82
99
95
78
81
96
91
74
78
91
87
72
74
91
87
71
73
88
83
67
71
84
81
66
66
84
80
66
66
81
77
60
64
79
75
60
62
76
75
58
61
77
75
60
60
76
74
58
59
77
73
58
60
76
74
58
58
75
72
58
58
74
71
57
57
74
70
56
57
73
70
56
56
73
71
55
55
72
70
55
54
72
71
55
54
70
68
54
52
72
68
53
53
71
68
53
54
73
73
59
58
79
82
68
72
92
96
85
93
115
120
112
117
140
143
136
141
159
164
156
158
179
182
168
174
194
194
184
186
201
203
193
194
209
205
199
200
208
207
203
203
207
208
203
203
207
206
204
205
206
208
202
199
208
208
198
195
208
208
195
194
207
206
190
189
203
203
185
183
197
198
182
179
193
193
177
173
188
188
172
168
186
184
169
164
180
181
165
161
176
177
160
158
172
173
160
156
171
170
157
153
167
168
154
149
162
166
150
145
161
161
146
143
158
157
143
139
154
155
142
136
150
154
137
135
150
150
138
133
147
151
136
130
147
151
134
130
147
149
132
131
147
148
136
132
144
149
133
130
146
149
135
130
144
147
132
130
144
147
136
131
143
146
134
130
143
147
132
129
141
144
131
125
141
145
129
125
140
143
127
123
138
141
124
121
133
139
123
117
135
136
121
115
131
134
119
113
126
129
117
112
124
127
113
107
121
125
109
105
118
122
107
102
114
119
104
100
111
115
104
95
107
112
98
92
106
110
95
88
103
107
91
87
99
107
90
83
97
102
88
79
96
100
83
77
92
97
83
76
88
94
79
73
85
92
77
71
83
89
74
68
82
89
75
67
78
87
72
66
80
86
71
65
78
85
69
63
74
82
67
62
75
82
67
60
75
80
68
60
74
82
68
60
75
82
65
58
75
78
65
59
71
80
66
59
72
79
67
58
70
79
63
56
71
78
65
56
71
78
64
57
70
78
63
53
67
77
64
57
70
78
64
56
67
78
67
59
75
86
76
72
88
101
95
90
108
125
118
114
130
147
138
135
152
165
158
153
170
183
171
166
184
195
184
179
193
203
194
186
201
207
201
193
204
207
205
196
206
206
207
199
206
208
206
196
207
203
205
196
204
206
201
191
203
208
198
186
198
206
193
183
193
202
189
179
187
195
185
174
182
190
179
170
178
186
175
164
173
181
172
161
169
179
166
156
167
177
163
153
165
173
162
152
160
169
160
148
157
168
157
144
156
165
152
141
152
160
148
137
148
159
146
136
145
155
144
135
143
154
142
130
140
152
140
130
141
151
137
128
139
150
140
130
138
148
140
129
136
148
137
127
137
149
139
125
137
150
137
126
137
148
135
125
136
149
137
126
135
146
138
125
134
145
135
123
132
145
133
122
132
143
134
120
130
140
132
119
126
140
128
116
127
138
126
115
122
134
126
113
121
131
120
109
117
129
120
107
114
127
117
103
112
123
114
102
109
121
111
98
105
118
108
95
103
115
104
91
100
111
102
90
97
108
99
85
94
106
96
85
89
105
94
80
87
100
92
79
85
99
87
76
83
98
88
73
79
93
84
71
79
90
84
69
77
89
82
68
75
90
80
68
73
88
77
64
72
86
78
65
71
85
75
63
70
83
74
61
67
82
75
61
68
82
75
61
67
82
73
59
65
80
72
59
66
79
73
59
65
80
70
57
64
78
72
56
63
78
70
55
63
76
68
53
59
77
68
54
59
75
68
54
58
75
68
52
59
73
66
54
60
78
75
63
72
89
87
76
88
107
108
99
110
130
130
122
131
151
148
139
149
169
167
157
165
184
178
167
175
193
189
177
183
201
198
183
189
204
200
188
194
208
206
191
196
206
206
192
196
206
204
190
194
206
201
187
190
204
199
184
187
201
193
181
183
196
189
175
179
191
184
171
171
186
181
167
169
182
177
162
163
179
172
157
159
175
170
153
157
173
165
152
154
168
165
148
153
167
161
147
149
162
159
143
145
161
155
140
141
156
152
136
140
153
148
134
135
149
146
132
132
147
145
129
130
145
142
127
126
144
141
128
128
145
141
123
128
142
140
125
127
143
139
125
127
143
138
124
129
141
140
125
127
142
139
126
127
142
140
125
126
141
138
124
126
142
138
124
124
140
137
124
123
139
137
121
121
138
135
122
120
137
133
119
120
136
131
117
116
132
130
115
115
130
126
110
113
129
126
109
110
126
122
108
107
123
120
105
105
119
118
103
103
116
116
100
98
113
112
98
96
110
110
94
94
110
107
92
91
106
104
89
86
103
102
87
85
99
99
83
82
100
97
82
80
93
96
79
78
92
94
77
77
91
91
76
74
90
90
76
73
89
86
72
69
86
86
71
70
85
86
69
67
84
85
70
67
83
84
68
67
80
83
67
65
82
82
67
63
80
83
65
63
78
79
65
63
78
80
66
60
77
76
63
61
79
78
64
61
78
80
63
61
77
77
63
58
76
75
61
59
76
78
61
59
75
77
62
60
77
80
67
66
84
90
77
78
98
108
97
100
121
128
119
121
141
149
140
140
158
166
155
156
175
179
167
168
186
193
180
178
194
199
187
185
202
208
193
188
204
208
198
194
208
207
196
193
206
208
197
191
207
207
194
190
204
206
190
186
199
202
188
183
197
197
184
178
190
193
177
173
187
188
175
168
181
186
170
164
177
182
166
162
173
176
162
156
172
175
160
153
169
172
157
151
164
169
155
147
161
167
152
145
158
164
149
144
155
163
148
140
152
158
146
136
151
156
141
134
148
152
139
133
145
151
137
132
146
150
135
129
142
150
136
127
143
148
134
127
141
149
134
129
143
146
135
129
142
147
136
128
141
148
134
127
142
147
134
126
142
148
134
127
141
148
133
128
140
145
134
126
139
145
132
125
136
145
131
123
135
142
128
121
134
139
127
118
132
138
126
116
128
137
124
115
129
133
119
111
124
133
117
109
122
130
114
107
118
126
112
103
115
124
109
102
112
120
107
99
113
117
105
94
106
114
100
92
105
111
98
88
101
109
96
89
100
107
94
86
97
103
90
81
93
102
89
80
92
100
85
76
89
98
84
75
87
96
83
74
85
92
80
71
85
94
81
72
83
90
78
69
81
93
80
67
80
88
76
65
77
87
74
65
78
88
75
65
77
87
76
66
77
87
73
64
74
85
73
63
75
84
73
63
73
83
72
62
73
84
71
60
73
82
71
60
73
81
71
61
73
82
71
61
73
87
76
65
79
92
85
78
92
110
102
97
113
129
121
118
134
149
143
136
150
167
159
152
165
181
173
164
179
192
182
175
189
201
193
184
195
207
198
190
198
208
202
191
201
208
204
191
201
206
202
192
202
206
202
189
198
208
198
185
194
204
196
181
190
201
189
178
186
196
187
174
181
192
181
169
176
189
177
164
172
185
175
161
171
179
170
158
166
178
168
155
164
175
164
153
163
173
164
151
157
172
161
148
157
168
157
145
152
165
155
141
149
163
152
138
146
157
148
135
143
156
145
132
140
153
143
130
137
152
142
129
135
150
142
129
136
149
139
126
134
146
138
126
136
147
137
125
132
146
139
125
132
145
137
126
134
146
138
125
131
146
138
124
130
144
136
125
130
143
134
122
