141
143
142
143
141
143
141
142
142
141
142
142
142
141
143
142
143
142
143
143
144
144
142
144
143
142
142
142
140
141
144
142
143
144
142
142
141
145
143
145
147
145
145
147
145
148
150
156
160
170
175
186
193
204
208
206
207
206
207
207
205
196
186
177
167
155
149
143
140
141
142
144
147
147
146
148
148
150
148
150
148
150
148
149
150
151
151
150
150
150
150
153
150
150
151
153
151
152
153
153
152
155
154
155
154
154
157
154
157
156
156
159
157
158
160
160
161
160
161
162
163
163
163
164
164
164
165
165
165
167
167
168
168
169
169
172
171
171
172
172
175
174
175
176
178
177
178
177
179
179
182
180
181
180
183
182
182
183
180
184
184
180
183
182
183
182
180
177
176
173
172
171
169
167
167
163
161
159
156
155
151
152
150
146
147
145
147
142
143
140
141
139
141
140
137
137
137
137
139
136
137
135
136
135
135
136
137
136
138
135
137
136
136
137
136
136
137
138
139
137
137
139
139
139
138
139
138
140
139
137
139
141
140
140
141
139
143
141
142
143
141
141
140
142
139
142
142
143
141
140
142
140
142
141
142
141
144
142
142
142
140
142
143
142
144
142
143
143
142
143
143
143
142
143
141
143
143
141
142
144
145
144
146
144
147
146
144
148
146
145
147
146
146
147
147
149
150
151
151
150
152
153
153
152
152
150
152
151
152
153
152
150
150
149
148
147
147
149
146
148
145
146
146
147
144
146
146
144
145
144
143
142
143
142
141
142
140
142
141
139
144
141
143
141
142
141
144
141
143
141
143
142
141
141
143
142
140
140
142
142
142
140
144
142
141
142
143
144
145
147
143
146
143
145
146
147
155
157
166
174
182
191
201
206
208
208
206
207
205
208
202
192
183
171
161
150
143
139
137
139
139
141
143
147
147
146
147
147
148
148
147
148
146
150
147
150
150
149
149
152
151
151
152
152
152
154
153
152
152
152
155
154
153
154
154
155
156
155
157
159
157
159
156
159
157
158
161
161
161
161
162
162
162
163
162
163
164
164
164
165
167
166
169
168
171
170
171
171
169
172
172
172
176
175
176
177
176
178
178
179
180
178
178
181
180
181
182
181
183
182
181
179
180
180
179
178
177
176
174
174
170
169
166
166
162
161
159
155
155
155
151
151
148
147
144
144
143
140
140
140
139
140
138
139
136
138
136
137
135
138
135
136
137
136
138
137
138
137
138
135
137
136
137
136
138
138
137
139
138
138
138
139
138
138
141
139
141
139
141
140
141
142
143
143
141
141
142
143
142
141
142
142
142
142
143
143
142
143
144
144
143
143
144
143
145
143
143
144
142
144
143
144
144
143
143
144
143
143
145
145
146
145
146
147
147
146
148
145
147
148
147
148
148
148
147
149
149
152
151
154
152
153
154
155
153
155
154
152
155
152
153
153
151
151
151
148
150
148
149
149
149
147
146
147
146
147
146
147
144
144
143
145
144
144
145
144
142
143
144
141
143
144
142
141
142
144
141
143
144
144
143
143
145
144
144
144
144
143
141
144
145
144
142
143
145
141
142
144
145
146
146
146
146
144
145
144
147
151
158
164
172
182
192
200
207
206
208
207
206
207
208
203
192
183
173
163
152
145
138
134
138
138
138
142
142
146
147
147
149
147
150
149
149
149
150
149
151
152
149
152
150
152
152
152
154
154
154
153
153
154
155
154
154
156
155
156
156
155
155
157
157
158
160
158
160
160
160
162
159
163
161
164
163
164
165
164
165
164
166
165
166
166
166
169
168
170
170
171
173
172
173
174
177
175
177
177
177
177
179
180
179
181
180
182
182
181
182
182
181
182
182
181
182
181
179
180
179
177
178
175
171
172
170
168
167
162
162
159
157
156
153
153
151
150
149
149
145
145
145
143
143
141
140
142
139
139
139
138
139
137
139
139
139
140
138
139
139
140
139
140
141
138
140
138
139
139
140
140
139
141
141
140
141
141
141
141
140
140
143
141
143
143
142
143
143
142
143
143
144
144
144
144
143
146
144
145
143
146
144
145
143
144
145
144
145
143
144
144
146
143
145
143
146
143
145
145
145
145
145
145
145
146
148
149
147
147
146
147
148
147
150
147
150
149
152
152
152
155
152
154
156
154
153
153
153
153
152
151
150
153
151
153
153
150
148
150
149
148
150
149
150
149
148
149
148
147
149
146
147
146
144
146
144
143
144
143
144
145
143
145
144
144
143
145
145
146
143
145
143
143
143
143
145
143
145
144
146
144
144
144
145
144
144
143
145
144
147
145
147
146
145
145
146
146
146
151
156
163
171
176
189
197
206
209
206
207
209
209
203
199
190
184
174
163
153
146
142
138
137
138
141
141
141
146
145
148
149
148
149
150
148
149
150
150
150
151
150
153
152
151
153
152
154
154
152
152
155
153
155
153
154
154
156
155
156
157
156
155
157
156
158
160
160
157
160
162
162
160
162
163
161
163
161
163
164
163
165
166
166
168
167
170
168
169
169
172
170
171
172
174
174
174
176
175
178
178
178
179
179
177
180
180
181
181
179
179
181
180
182
182
181
180
180
177
176
175
175
172
169
170
168
165
165
161
159
156
156
154
153
151
148
147
146
147
144
144
145
144
143
143
141
140
142
140
140
138
139
138
139
137
139
137
138
137
137
137
139
139
138
137
138
138
139
137
140
140
141
141
142
139
140
142
142
141
142
141
141
140
141
141
142
144
144
142
144
143
144
143
143
144
143
145
143
145
143
144
145
145
144
145
146
145
145
146
145
146
146
145
147
143
146
147
147
148
147
147
148
145
149
147
146
148
146
147
148
147
149
148
149
151
152
153
153
156
154
155
154
155
154
152
153
153
155
154
152
151
152
151
149
148
150
148
148
149
149
148
148
148
148
147
147
146
147
146
144
145
143
144
142
145
144
145
143
146
143
144
143
144
144
144
145
145
143
144
145
144
145
145
144
144
143
144
145
146
146
145
144
144
144
144
143
145
146
146
147
145
147
145
148
150
155
163
169
176
185
196
200
207
206
206
208
206
204
197
191
181
174
163
156
145
141
140
137
140
141
141
144
145
147
147
148
149
148
151
150
148
150
148
150
149
150
152
150
153
151
153
152
152
155
154
155
154
153
155
154
152
156
155
156
157
158
157
159
158
159
158
158
159
159
161
162
162
162
160
161
161
162
162
164
165
165
167
166
168
168
169
168
169
170
172
170
172
172
173
174
173
175
175
178
177
178
179
179
176
179
179
179
180
180
181
180
182
182
180
179
178
178
179
177
175
172
171
170
169
167
165
162
159
160
157
155
152
151
149
149
146
147
143
143
141
143
139
141
140
141
139
139
140
139
140
137
138
138
139
140
138
138
138
138
140
137
139
138
139
139
139
139
140
139
140
139
140
140
139
142
143
138
142
141
141
141
142
144
141
142
142
142
140
143
141
143
142
143
143
145
143
145
143
145
143
145
144
144
143
144
143
144
145
143
144
144
144
145
145
144
144
145
145
145
144
144
145
145
146
146
147
146
146
148
146
149
148
147
148
146
148
148
146
148
148
150
150
153
151
152
153
154
155
153
156
152
154
152
152
153
152
153
150
150
150
149
151
149
149
148
148
149
148
150
147
150
148
150
146
147
145
147
146
146
146
144
145
144
144
143
145
145
143
146
144
144
143
143
144
142
145
143
144
143
143
145
143
145
146
146
143
146
144
145
143
144
142
144
143
145
145
146
146
146
147
146
148
149
152
156
165
172
181
188
196
205
207
205
207
207
207
209
205
201
191
178
171
159
152
146
143
143
144
144
146
147
149
148
150
149
147
149
149
150
149
149
149
148
151
149
151
150
150
150
152
150
151
151
152
153
153
153
152
155
153
155
153
154
154
156
156
158
157
157
158
156
159
158
158
159
158
161
160
161
160
160
163
161
164
164
164
164
167
168
166
167
168
168
171
168
172
172
172
173
173
175
176
175
176
178
179
179
178
179
180
181
181
181
181
179
179
179
181
179
180
179
179
176
175
175
174
171
169
169
163
165
162
160
157
155
154
153
149
149
149
147
144
142
143
142
141
140
140
138
140
136
139
136
138
137
139
137
138
138
140
137
138
138
138
139
138
137
137
138
137
138
137
137
139
137
138
137
138
139
141
139
139
139
142
141
142
141
140
142
140
142
142
140
143
143
143
144
142
143
144
144
143
142
143
143
144
145
145
145
144
144
146
144
146
144
145
146
144
146
144
146
145
145
146
144
146
146
146
147
144
147
145
145
144
143
144
145
143
144
144
143
145
144
144
145
144
145
145
146
146
144
146
144
145
147
146
147
147
148
149
147
148
146
148
148
149
148
150
149
149
150
151
152
153
153
153
156
155
155
155
156
154
154
155
152
154
153
152
151
153
150
153
151
151
151
151
150
150
150
148
149
150
149
147
146
148
147
145
146
146
147
146
144
145
143
144
144
144
145
144
145
146
145
146
145
146
144
146
144
145
142
144
145
146
145
145
145
146
145
146
144
145
144
145
147
145
148
146
148
148
147
150
148
151
151
156
160
166
173
178
184
193
200
208
207
209
207
205
208
207
200
194
184
175
165
159
151
151
149
148
149
150
150
151
153
151
152
150
151
150
150
151
150
151
149
151
149
152
150
152
152
153
152
151
153
153
153
152
154
151
156
154
155
156
156
156
157
158
156
159
157
159
157
159
160
160
159
162
160
161
161
163
162
164
164
163
163
166
163
167
166
169
168
170
167
172
170
172
173
173
172
175
176
177
178
177
180
179
181
182
180
182
180
183
181
182
181
182
183
180
182
182
181
181
180
180
179
177
173
174
171
170
168
167
162
164
159
161
156
154
153
149
149
149
146
146
145
146
144
142
141
142
140
140
140
142
139
140
139
140
139
139
139
140
139
139
138
140
138
140
138
142
140
142
140
139
140
140
142
139
143
138
143
140
141
139
143
141
140
141
142
141
143
144
143
142
141
143
143
143
143
142
144
144
144
143
145
143
145
142
143
141
143
142
143
142
144
145
145
144
143
145
144
144
146
146
144
144
147
144
145
147
146
146
145
147
146
145
143
145
143
145
145
145
144
145
143
143
146
144
146
144
146
145
145
147
146
146
146
146
144
147
146
144
145
144
146
145
147
146
146
147
145
148
145
145
146
145
146
145
149
148
149
149
148
150
148
150
149
151
149
151
151
151
152
152
153
155
155
154
155
155
157
156
159
156
157
155
155
154
154
156
154
156
154
155
153
153
153
153
152
152
152
151
151
151
152
149
150
151
149
149
148
147
147
145
147
146
147
146
146
146
145
146
147
146
146
147
144
147
145
146
146
146
148
144
147
146
145
146
147
146
146
146
148
146
147
146
146
147
148
148
146
149
150
149
149
149
149
151
152
151
156
157
165
168
175
180
190
197
205
207
206
208
207
207
209
203
198
189
179
172
163
159
151
150
149
152
152
155
153
154
154
152
153
153
155
154
153
154
153
153
154
153
153
154
153
156
152
153
155
155
153
155
153
156
155
156
155
159
158
159
159
158
158
159
158
157
157
159
161
161
163
161
162
163
163
163
164
165
164
164
165
166
165
168
166
169
167
169
169
171
172
172
175
175
174
176
174
176
177
179
178
181
179
181
180
183
182
184
183
184
183
185
184
184
185
187
186
187
184
186
183
181
181
180
178
179
175
174
170
169
166
166
161
161
157
157
153
153
150
151
148
149
145
146
141
142
142
141
142
140
141
138
140
139
139
138
141
138
140
139
139
138
139
140
139
140
140
139
139
139
140
139
141
140
140
142
140
140
141
141
140
141
142
140
143
141
140
142
141
142
141
143
142
143
143
144
141
141
143
142
143
143
145
143
144
143
145
144
144
143
144
144
144
145
145
144
143
144
145
144
145
144
146
146
145
145
145
147
146
147
147
146
146
144
146
145
146
145
145
145
144
146
145
147
146
146
146
145
145
147
146
148
147
144
147
147
146
145
146
144
148
147
145
148
146
148
146
146
146
147
147
146
145
147
146
146
147
146
148
147
147
145
148
146
147
149
148
148
148
149
148
149
150
150
151
149
152
151
152
150
149
151
152
153
152
153
157
158
156
158
159
157
158
156
157
156
157
156
156
155
156
157
155
156
153
155
153
152
151
151
152
152
151
152
151
150
149
149
150
149
149
149
146
149
147
147
146
145
147
145
146
146
145
148
145
147
146
146
148
146
144
147
147
145
147
147
146
147
146
145
146
147
147
146
145
147
145
146
145
147
145
147
149
149
148
148
150
151
150
155
156
163
167
175
180
187
197
204
209
205
207
205
209
206
205
199
191
181
169
163
153
150
149
146
148
149
150
152
153
151
152
150
151
153
151
151
153
153
153
151
152
153
152
152
153
153
153
153
154
154
154
155
155
156
157
156
157
156
157
157
156
158
158
159
158
158
160
160
159
161
162
161
163
163
163
162
161
165
164
164
164
165
167
167
166
167
170
168
171
171
170
173
173
174
176
174
176
176
178
179
177
180
179
182
181
184
182
185
183
185
184
184
185
186
184
185
184
184
184
182
183
181
182
179
179
176
176
172
170
169
166
164
161
161
156
156
153
152
151
147
147
147
143
146
143
143
143
141
139
140
140
141
137
140
136
138
138
140
137
139
137
138
138
139
137
138
139
139
139
138
141
138
138
140
140
139
139
139
139
141
139
141
142
142
140
142
141
140
141
141
142
141
142
142
143
142
143
143
141
144
143
142
144
144
142
146
145
144
144
146
143
145
144
144
146
143
145
146
146
145
144
144
144
142
145
144
142
145
144
142
144
145
146
145
144
143
144
142
146
143
142
143
145
144
143
144
142
145
143
144
143
145
145
145
143
146
144
145
143
144
146
147
145
145
145
146
145
144
145
146
145
145
145
145
144
147
145
147
149
149
149
149
148
148
148
147
149
148
149
149
150
151
153
153
152
154
155
157
156
156
157
156
158
156
156
153
155
155
154
155
155
152
153
151
151
151
151
150
150
152
150
151
150
149
148
146
148
146
146
145
147
145
145
147
146
147
145
146
146
143
145
144
146
146
144
146
144
144
146
145
146
145
148
143
147
146
145
146
147
145
146
146
146
143
146
145
147
149
148
148
148
148
150
150
151
153
156
163
168
176
186
192
202
207
206
208
208
206
208
207
204
197
186
176
166
157
149
143
142
144
144
145
147
149
150
150
150
153
150
151
152
151
152
152
151
152
152
153
152
152
152
152
154
155
155
154
153
155
155
155
156
157
158
157
157
157
157
159
156
160
160
159
159
159
160
160
161
161
163
162
162
165
164
164
164
165
166
166
167
167
168
169
171
169
173
171
174
172
174
176
174
178
177
178
178
180
180
181
180
182
182
184
184
185
186
185
186
186
186
185
184
187
185
187
184
184
183
180
180
177
177
177
173
172
169
167
164
162
161
159
157
155
153
150
151
147
148
145
144
144
141
142
143
139
140
138
141
139
138
139
140
138
137
139
138
138
138
139
140
138
137
139
139
139
140
137
139
141
139
139
140
138
140
140
139
141
140
141
141
143
142
141
141
140
142
141
144
143
144
143
144
145
142
144
143
143
145
143
144
146
144
144
144
143
144
142
144
144
145
144
145
144
143
144
143
143
143
144
145
145
146
144
145
144
143
146
143
145
144
144
143
143
144
143
146
144
143
144
144
143
144
145
144
144
145
142
146
145
143
146
146
146
147
145
146
146
146
149
146
147
148
149
149
149
149
153
152
152
154
154
154
155
153
153
154
152
154
151
154
151
151
151
152
152
149
150
148
150
148
148
147
147
149
147
145
147
147
144
144
145
143
146
143
145
145
142
144
143
144
144
141
143
143
144
144
143
145
143
144
145
145
143
144
144
142
142
142
144
143
144
141
144
141
145
141
144
142
145
145
146
145
146
146
145
146
146
149
149
157
160
170
177
185
194
205
207
207
207
206
207
208
202
195
184
176
165
156
146
143
136
138
139
139
143
145
147
148
149
149
149
150
147
150
150
150
150
150
150
151
150
152
151
152
152
153
152
151
153
152
154
153
154
154
156
155
156
155
158
156
158
157
159
157
159
157
158
160
158
161
162
162
161
163
162
164
163
165
166
164
167
166
166
168
169
169
170
169
172
171
173
174
173
176
177
176
178
177
177
179
181
181
181
181
182
183
183
184
185
186
184
185
184
182
185
184
183
183
180
179
179
177
173
173
170
170
166
166
161
162
156
157
153
153
148
149
147
146
144
143
143
142
141
141
138
139
138
140
137
136
137
136
137
137
135
137
137
135
137
137
138
138
136
136
137
138
136
138
137
139
137
139
139
139
136
139
140
139
139
140
140
141
140
140
140
141
140
143
141
141
144
142
144
142
144
142
144
142
144
142
142
144
142
144
143
144
144
143
144
142
144
143
146
144
145
144
142
144
143
143
144
144
144
144
143
143
143
146
145
146
143
145
144
144
145
144
144
146
144
147
145
145
146
143
146
144
144
147
146
143
145
144
144
145
144
145
144
145
146
145
148
147
148
146
149
150
149
150
147
149
148
150
149
151
151
151
154
154
156
155
156
156
156
156
157
155
157
155
157
154
157
155
154
154
154
152
151
150
152
149
150
151
150
150
150
150
149
150
147
148
147
147
144
144
146
144
146
144
146
145
145
145
144
147
144
144
146
145
145
143
144
145
143
146
146
146
145
145
145
143
146
144
147
144
145
146
143
145
146
147
148
147
148
148
149
147
151
150
154
158
165
171
176
186
193
202
206
208
208
206
209
206
205
198
187
179
167
157
148
144
141
144
144
145
149
147
150
150
150
151
153
149
153
150
151
152
149
153
152
152
152
152
152
152
152
154
155
153
155
152
155
155
156
155
156
156
156
158
158
159
157
158
158
160
160
160
160
159
162
160
163
161
163
162
163
163
164
163
165
164
166
167
168
167
169
170
171
171
172
171
172
172
176
175
177
176
177
179
179
179
181
179
183
182
183
181
185
183
184
185
185
186
183
184
185
182
184
182
181
181
180
180
175
175
173
172
168
167
164
161
160
158
155
154
153
152
148
148
146
146
145
144
143
143
140
141
140
140
140
138
139
140
138
140
139
139
140
139
140
140
138
139
139
138
140
139
140
139
140
140
139
141
139
141
139
142
140
142
141
142
142
142
142
143
141
144
142
140
142
142
145
141
143
142
143
144
143
143
142
145
142
143
143
145
144
143
146
144
144
144
143
145
145
144
145
144
145
144
144
143
144
144
144
144
144
143
145
146
142
146
143
147
144
145
146
143
144
145
145
143
144
144
144
145
146
145
145
144
145
146
145
145
146
146
148
146
148
147
149
147
147
149
146
150
149
147
150
149
151
150
152
152
152
154
155
155
157
156
156
158
154
154
155
155
156
158
154
156
152
152
150
150
151
149
150
150
151
149
147
149
147
148
147
146
148
146
147
144
146
146
145
146
144
145
143
144
145
145
145
144
146
144
144
144
145
146
144
145
146
145
146
145
145
146
146
144
145
144
145
145
146
144
147
144
148
147
148
148
148
149
149
151
155
157
165
172
181
187
197
205
208
207
209
205
208
208
206
197
187
179
169
157
151
144
143
144
143
145
147
147
150
150
152
151
150
151
150
154
150
151
150
152
153
153
152
151
154
151
156
153
154
153
154
154
155
155
156
155
155
155
156
158
158
158
159
159
161
158
161
160
160
159
160
161
163
163
163
163
162
164
166
167
167
166
167
169
168
171
169
172
171
173
174
174
175
176
176
176
178
178
178
181
181
181
182
181
183
184
183
185
183
186
185
186
184
185
186
186
186
184
184
184
184
182
182
179
177
176
176
172
171
168
166
163
160
158
159
154
154
153
150
148
147
147
147
143
145
142
141
143
140
141
139
140
139
138
139
138
139
138
139
138
140
139
137
141
138
141
139
140
139
140
139
140
139
138
140
140
140
141
140
142
139
141
142
143
140
143
140
140
142
143
140
143
143
143
143
144
143
145
144
144
143
144
144
143
145
142
143
143
143
143
144
144
145
144
144
145
143
144
143
146
143
145
146
145
143
143
144
143
145
145
143
144
143
143
143
144
143
142
145
143
144
141
145
143
143
144
144
143
145
144
143
144
145
147
145
147
146
147
146
147
146
147
148
149
148
149
151
149
152
151
153
152
155
155
155
155
153
155
153
155
154
153
152
153
152
152
153
149
150
149
150
149
149
149
146
149
148
146
146
146
144
146
146
144
143
144
144
144
142
143
143
143
144
145
142
144
144
142
145
145
143
142
143
143
141
144
143
144
143
144
144
143
143
143
144
144
145
144
146
143
144
145
147
146
148
147
146
148
148
151
157
160
169
176
183
192
201
209
208
206
209
208
206
207
200
191
179
171
159
152
143
139
139
140
144
143
146
149
148
150
148
152
149
150
150
150
149
148
149
148
151
151
151
151
151
150
152
151
153
154
154
154
155
153
156
156
155
155
157
153
155
157
157
158
159
159
160
158
160
160
161
160
161
161
162
162
163
164
164
164
167
165
167
165
169
167
170
169
171
170
172
172
174
172
175
175
176
177
178
178
180
180
180
182
182
182
182
183
184
186
184
186
183
186
184
184
181
182
182
180
182
180
179
176
176
174
171
170
168
166
163
160
159
157
157
152
152
149
147
148
144
143
142
144
143
141
142
139
140
141
139
139
139
139
139
138
137
138
140
140
138
139
138
138
137
138
138
138
140
139
137
139
140
140
140
140
140
140
141
142
141
142
143
143
143
143
144
143
143
142
143
144
145
143
143
144
145
144
143
145
146
145
143
145
144
142
146
145
144
145
145
145
145
145
146
144
145
146
145
146
144
145
145
145
144
144
144
145
145
143
144
147
146
146
144
144
145
145
144
143
146
146
145
148
146
147
146
148
147
149
147
149
148
147
148
149
148
150
150
152
152
153
154
154
156
157
155
155
155
154
155
156
155
154
154
152
150
155
152
151
151
151
151
148
148
150
149
149
150
148
146
148
147
146
145
145
146
146
144
145
145
145
145
145
146
145
145
143
146
145
145
144
144
145
145
144
146
145
144
145
143
144
144
143
145
145
144
143
145
145
143
146
145
143
146
148
146
145
146
147
149
151
155
164
170
179
188
197
205
208
207
206
206
207
207
204
194
184
175
165
154
146
139
136
137
136
139
139
144
147
146
149
147
150
150
151
151
149
152
152
150
153
151
153
152
151
153
153
153
153
152
155
153
154
156
154
156
157
157
156
156
158
159
159
158
158
159
159
160
160
162
162
161
162
163
161
164
163
163
164
166
165
167
167
166
167
170
170
169
172
170
171
173
174
173
175
174
177
176
177
179
179
180
181
181
181
181
182
182
184
182
183
183
184
185
185
186
184
183
182
181
181
180
177
177
174
173
172
168
167
165
164
161
159
159
154
153
149
151
147
146
145
144
142
144
141
139
140
139
137
139
137
137
140
138
138
139
140
140
139
136
138
140
139
137
139
139
137
137
139
139
136
139
139
140
139
141
141
140
139
140
141
141
142
140
141
143
141
142
143
142
143
144
143
142
144
144
143
144
142
143
144
144
144
143
144
144
143
145
144
144
144
145
144
144
147
145
144
145
145
144
145
142
144
144
143
143
144
145
144
142
144
145
145
143
143
145
144
145
145
145
144
145
147
144
145
147
147
146
147
147
147
150
147
148
147
146
151
149
151
152
152
154
154
154
154
154
153
153
153
152
151
153
150
151
152
149
149
149
149
148
150
149
150
148
148
149
146
147
146
145
146
145
144
143
145
141
142
145
143
144
145
142
145
145
144
144
145
143
144
143
142
144
142
143
144
145
144
143
144
144
141
144
145
145
143
145
143
144
143
144
146
147
147
146
146
147
145
149
153
155
161
169
177
187
195
204
207
207
208
207
206
208
206
195
188
177
166
155
148
143
138
139
140
142
144
144
145
147
148
150
149
150
148
151
153
150
150
150
151
152
151
150
150
152
151
152
153
153
154
155
152
154
155
154
156
153
157
156
156
157
156
158
157
160
160
159
161
159
160
161
161
162
163
161
160
163
164
163
165
164
165
168
167
166
169
168
168
172
172
172
173
175
174
174
176
177
176
179
178
179
181
179
179
182
181
182
182
183
182
184
183
183
184
183
182
182
181
180
180
181
179
175
175
171
170
168
167
163
163
160
158
155
153
152
149
150
149
147
145
144
143
142
142
142
141
140
139
137
136
138
139
138
139
137
137
135
138
138
137
137
138
136
136
139
137
138
138
139
138
138
139
137
139
138
139
138
142
140
141
140
142
139
142
142
142
140
141
143
141
142
143
141
142
143
141
142
142
143
142
142
144
143
143
141
143
144
142
145
143
143
145
144
144
143
145
144
143
144
143
143
143
144
145
145
144
144
144
144
143
144
144
144
145
145
142
146
144
144
143
143
144
145
143
144
145
144
144
145
146
145
146
147
148
147
147
147
146
148
146
147
148
147
150
151
150
151
151
153
153
156
154
156
156
155
153
156
155
152
153
154
153
153
152
152
152
151
150
150
149
150
150
149
150
149
148
147
147
147
146
148
145
146
146
145
147
143
143
143
146
143
146
142
145
145
145
144
145
142
144
144
145
144
145
145
143
144
144
143
147
143
146
146
145
145
145
146
146
148
145
147
148
147
148
148
147
149
151
152
157
163
168
175
183
192
203
207
207
208
208
208
207
206
200
191
183
172
165
153
147
141
143
144
145
148
147
148
152
149
152
149
151
152
150
152
150
153
150
151
151
153
151
155
151
152
151
153
152
154
156
152
156
155
155
155
154
156
156
158
157
159
160
158
158
159
161
159
161
159
161
160
162
162
162
164
162
164
164
164
165
168
169
168
166
169
169
169
171
169
171
174
172
174
175
175
177
176
178
178
180
180
180
180
180
182
181
183
185
185
184
184
185
183
184
184
185
183
184
181
181
179
179
178
173
174
170
169
168
165
161
160
157
155
155
152
149
149
146
147
144
143
140
142
143
140
140
139
139
139
138
137
140
137
136
138
139
139
139
137
138
139
138
139
139
138
139
137
138
138
139
138
141
138
139
139
139
138
141
139
140
140
140
140
142
141
142
141
142
141
142
142
140
143
142
144
143
142
142
142
145
142
144
143
145
143
145
143
145
144
144
143
144
144
143
144
144
143
144
143
146
144
144
145
143
144
143
145
144
146
144
143
145
144
144
144
145
145
143
145
145
143
145
145
143
146
145
144
145
144
145
145
142
145
145
144
146
144
146
147
148
146
147
148
147
147
150
148
149
150
149
150
152
149
152
154
153
155
155
155
156
156
154
156
154
157
154
155
154
153
152
151
152
152
150
151
151
151
151
148
150
149
151
149
148
146
147
147
145
147
144
147
144
145
145
146
144
146
143
145
145
145
144
146
143
145
144
142
146
145
146
143
145
144
146
144
145
145
144
143
146
145
144
146
146
146
146
145
147
147
150
149
147
150
150
155
158
162
170
177
186
193
203
206
208
207
209
207
207
207
201
191
182
170
165
151
147
145
142
146
145
146
148
150
151
151
152
150
152
153
151
152
149
152
151
151
151
153
153
151
151
153
152
152
152
155
153
154
155
154
156
156
156
158
157
157
156
156
157
157
159
159
162
158
161
161
160
162
161
161
163
165
166
163
164
166
165
169
168
167
170
168
170
172
172
171
173
172
172
174
175
177
179
179
178
180
181
179
183
181
183
184
183
184
183
186
183
186
183
184
185
182
184
183
181
182
181
180
179
177
174
172
170
170
167
165
164
161
158
156
153
155
149
150
147
146
145
144
144
142
141
142
139
139
139
138
140
137
139
139
138
141
138
136
139
137
138
137
137
138
138
137
139
138
139
141
138
139
138
138
141
140
140
141
140
139
141
138
141
141
141
142
141
140
143
141
142
144
143
144
145
144
143
143
143
143
144
142
144
143
142
145
144
144
144
143
146
146
143
144
146
144
145
145
146
144
146
144
143
146
144
144
145
146
143
146
143
145
145
147
146
144
144
144
145
143
146
145
147
145
144
147
145
144
146
145
146
147
145
148
148
148
148
147
149
147
149
148
149
149
148
149
149
152
150
152
152
153
155
154
155
155
155
155
156
155
156
152
155
155
153
154
153
151
154
153
153
151
151
151
151
150
151
149
150
149
149
147
148
148
147
148
147
145
147
145
145
146
144
145
144
144
146
144
146
146
146
146
148
143
145
145
144
143
146
147
145
146
144
146
145
146
145
146
145
144
146
148
147
147
147
150
150
148
150
149
151
152
155
163
170
177
183
193
203
207
207
210
206
206
208
206
204
191
184
174
162
151
145
142
140
139
142
145
146
147
151
148
151
151
153
152
151
153
153
154
153
151
153
152
154
153
153
153
155
156
156
155
155
155
156
156
156
156
156
159
158
157
159
159
158
160
160
162
161
160
162
162
163
163
164
163
164
166
164
165
164
166
168
167
168
168
171
173
172
171
174
173
172
176
176
176
178
176
178
179
179
180
182
180
182
184
185
184
185
186
185
183
184
185
186
186
186
186
187
185
183
183
183
180
179
177
177
175
171
171
170
165
161
161
160
157
157
153
152
149
150
148
147
144
144
145
143
142
141
141
140
138
138
141
140
139
139
140
138
137
138
138
139
139
140
139
138
139
138
140
139
138
140
141
139
140
139
141
139
142
142
141
140
139
143
141
141
143
142
141
143
142
142
143
144
145
142
144
144
143
144
145
145
145
143
143
145
146
145
143
146
147
146
145
145
147
145
145
147
147
144
144
145
145
146
145
146
144
145
144
145
145
145
146
144
147
147
146
146
147
146
147
148
147
148
148
148
148
146
146
148
149
150
149
149
150
152
153
154
155
154
155
157
156
155
152
154
155
154
153
153
154
151
150
151
149
148
149
150
151
149
151
149
150
148
151
146
147
148
147
146
145
143
144
145
145
145
144
144
144
144
144
143
146
143
146
144
144
146
145
144
144
145
146
144
143
145
147
145
145
143
144
144
145
145
146
147
143
144
148
146
146
147
147
148
146
148
151
152
156
164
171
179
187
198
205
209
209
207
206
208
206
206
199
188
178
167
158
147
139
136
137
137
139
141
145
146
148
147
147
149
151
151
150
151
151
153
152
150
151
154
152
152
152
153
154
155
153
155
155
156
156
155
155
156
156
157
158
157
158
157
159
159
159
160
163
160
161
160
161
163
162
163
163
164
165
165
165
166
167
166
167
167
169
170
168
171
171
172
172
172
173
176
176
175
179
178
179
178
179
180
182
179
182
183
182
183
184
183
184
185
187
183
184
185
183
182
181
180
180
177
176
174
171
170
169
165
163
163
159
159
156
152
152
150
147
148
145
143
144
143
142
142
140
139
140
138
137
138
137
137
136
138
138
138
138
135
138
140
135
136
138
137
135
138
136
137
140
138
138
138
141
138
141
140
139
139
139
140
137
141
140
139
141
142
140
142
142
141
143
143
142
143
142
142
143
142
143
144
144
145
145
142
143
145
144
144
144
145
145
146
143
144
146
144
144
144
144
144
146
142
144
145
144
142
143
145
141
144
145
144
145
145
144
144
144
145
145
145
146
145
148
147
146
148
147
146
146
147
149
149
147
150
151
150
151
154
154
156
155
155
153
154
154
155
153
152
151
153
151
151
149
151
150
148
150
149
149
148
149
149
148
148
147
145
146
146
146
145
143
144
144
144
144
143
143
144
144
143
143
144
145
143
142
142
145
143
143
142
144
144
144
143
143
144
144
144
142
143
144
145
144
144
143
144
144
144
146
146
145
145
146
147
146
146
149
153
159
164
169
179
189
196
205
208
207
207
207
207
207
203
194
186
175
162
153
146
142
142
139
140
142
146
146
145
147
149
148
149
150
150
148
149
150
151
150
152
149
151
150
151
153
151
152
152
153
152
155
154
153
154
156
155
153
155
156
155
156
158
159
158
157
159
160
159
159
158
159
161
159
160
160
161
162
164
164
164
164
166
166
165
167
168
168
170
168
170
171
170
174
174
175
176
174
177
178
176
178
179
180
179
181
179
179
182
181
183
184
183
181
183
182
181
183
180
180
179
178
177
175
171
170
169
166
164
163
160
158
157
154
152
151
149
146
146
145
143
142
141
140
139
141
140
137
138
138
137
138
138
136
137
136
135
136
137
138
136
137
138
134
135
137
138
136
137
138
137
137
138
138
139
139
137
140
138
139
138
140
140
140
139
139
141
140
140
141
141
141
141
142
141
140
141
142
141
142
141
143
141
141
144
140
142
142
144
143
143
141
143
144
144
143
143
144
143
145
144
145
143
144
144
144
144
143
143
144
143
143
144
143
143
142
144
145
143
143
144
146
143
143
144
143
143
145
147
147
145
145
146
147
146
147
147
147
147
146
147
148
150
149
150
148
150
151
155
151
151
153
155
155
156
154
153
153
153
153
154
153
151
151
151
149
149
149
150
150
148
150
147
148
148
149
149
147
146
145
146
144
146
145
144
143
142
144
144
143
144
143
144
143
143
145
146
143
143
143
144
144
143
142
142
143
145
144
145
144
145
144
145
145
143
142
144
146
144
144
144
144
146
148
148
149
146
148
149
154
160
163
172
178
185
194
202
208
207
208
206
208
207
201
197
189
180
167
159
152
147
144
141
147
147
147
148
148
149
149
150
149
152
149
149
150
149
150
149
151
150
152
149
150
152
151
150
153
153
153
153
153
154
154
153
153
154
156
155
156
154
156
156
156
158
158
159
157
158
160
159
160
159
159
161
162
160
162
163
163
164
164
165
165
167
167
168
167
168
169
171
172
173
175
173
173
175
176
179
179
178
179
178
181
182
181
181
182
184
184
183
184
184
183
184
183
184
183
180
182
180
179
178
176
173
171
169
166
165
163
159
160
156
153
152
151
148
148
145
144
145
142
141
141
141
139
138
137
137
140
137
137
137
137
136
138
139
136
136
135
136
136
138
136
136
136
136
138
136
139
138
138
139
138
137
137
138
140
139
139
139
140
139
142
141
140
141
141
140
140
141
141
143
141
142
142
143
141
142
142
143
142
143
142
144
142
143
143
143
142
143
142
143
143
143
141
141
142
145
145
143
142
144
145
143
144
143
143
143
142
144
142
142
143
143
142
144
142
142
145
144
143
145
142
143
143
142
143
145
142
143
144
144
144
144
144
146
147
147
145
146
146
147
147
149
148
148
149
149
148
150
152
153
153
155
154
156
156
153
154
154
154
153
153
152
151
151
151
150
149
150
150
148
151
148
147
150
149
148
146
146
145
145
146
145
144
143
144
144
143
144
143
142
144
143
143
142
144
143
144
143
143
142
143
143
143
144
144
141
144
143
143
144
141
143
142
145
143
142
143
144
143
141
144
145
145
146
147
146
145
149
150
150
156
163
169
176
183
192
201
206
208
208
209
206
206
208
201
192
183
172
162
153
146
142
143
145
146
146
148
148
149
150
149
150
148
148
151
149
149
149
151
150
150
148
149
149
152
150
152
151
151
153
152
152
153
152
152
154
155
153
154
157
156
154
158
158
156
159
160
158
159
161
159
160
161
160
160
162
161
163
163
164
165
164
167
167
166
166
169
167
170
171
171
171
172
174
176
175
175
176
179
178
179
180
182
180
182
182
183
183
182
184
185
183
184
184
184
184
184
184
182
181
180
177
177
177
176
174
170
169
166
164
162
158
156
154
154
150
148
148
144
145
143
144
141
140
142
141
138
138
137
139
138
136
136
138
138
137
137
138
135
137
138
138
136
137
138
137
135
136
137
137
137
137
138
139
137
138
140
139
141
140
141
140
140
141
141
140
140
142
140
140
140
141
142
142
142
141
142
141
141
142
142
144
142
144
143
142
143
143
143
144
143
143
143
143
141
144
143
144
145
143
146
143
142
144
144
143
143
144
143
140
144
143
143
142
145
143
143
145
145
143
145
144
144
145
145
144
145
144
144
146
144
143
147
146
144
146
147
147
147
147
147
148
148
148
149
147
150
152
150
152
154
154
154
155
153
154
154
155
153
153
155
154
153
150
152
153
150
149
149
150
150
149
147
151
151
149
150
147
146
148
146
146
147
146
144
143
145
144
144
143
143
144
144
143
145
142
144
144
145
144
144
144
145
145
145
142
143
144
144
144
144
145
144
144
144
146
145
143
145
144
143
146
147
145
147
147
147
147
147
147
150
155
158
164
173
182
189
201
208
205
207
207
209
208
206
209
199
188
179
166
155
146
141
138
138
138
141
142
144
147
146
148
152
150
150
151
151
149
150
150
150
151
153
152
154
153
153
153
154
155
154
153
155
156
157
156
155
157
157
156
158
157
158
159
157
158
160
161
162
159
160
161
161
163
164
164
164
163
165
165
166
167
167
166
169
169
169
169
172
170
172
173
175
174
174
176
175
179
179
179
179
180
182
181
182
182
183
184
186
184
183
187
186
186
188
186
184
187
186
185
185
183
181
181
177
176
173
172
169
171
166
163
164
159
157
154
151
152
151
149
147
148
145
143
143
143
141
140
141
140
139
139
138
141
138
139
137
138
139
138
137
139
137
139
139
139
138
139
139
140
138
138
138
140
139
138
140
139
140
139
141
140
138
142
142
141
140
141
143
141
142
142
143
141
143
144
145
143
144
144
144
144
144
145
145
146
146
146
147
145
144
144
144
144
145
146
147
144
145
145
143
145
147
145
145
147
145
146
147
146
146
146
147
147
146
144
147
146
145
144
144
145
147
146
146
145
146
147
147
147
146
148
148
148
147
148
150
148
151
150
150
151
151
151
152
152
153
152
154
153
156
158
157
157
157
159
156
156
157
157
154
156
156
155
153
153
153
151
153
153
151
150
151
152
152
151
150
149
149
149
147
147
146
148
147
145
147
145
147
145
144
145
145
145
145
145
144
145
145
145
145
145
143
144
145
146
147
145
146
146
145
144
146
147
145
145
147
145
147
148
146
146
147
147
149
149
148
148
148
151
151
155
159
164
173
182
192
199
208
208
205
207
207
208
207
206
202
193
181
172
159
149
144
142
139
140
141
145
147
149
148
147
149
151
149
151
151
150
150
150
152
152
153
152
153
154
154
154
153
155
153
155
155
155
156
156
155
156
155
157
158
159
160
158
159
159
159
160
160
159
161
161
161
162
161
162
164
165
165
165
165
165
167
167
168
168
168
169
169
169
170
174
175
175
175
174
176
177
178
177
178
179
181
183
184
181
183
186
185
183
184
185
187
184
185
184
185
184
185
185
184
182
180
180
177
176
173
174
168
167
164
164
160
158
157
153
152
152
150
148
146
145
145
143
142
143
141
139
140
139
139
139
138
136
139
138
137
137
138
138
136
137
139
138
136
138
139
137
138
139
137
139
140
139
140
140
136
138
141
141
139
140
139
141
141
142
141
142
141
143
143
141
141
143
142
144
145
143
142
142
145
144
143
143
143
144
144
143
144
144
147
145
143
147
146
145
146
146
145
146
145
146
145
144
145
144
145
146
146
144
147
145
143
146
144
145
146
147
144
147
146
144
143
147
145
144
143
145
145
144
144
144
144
146
147
147
145
145
146
147
146
146
146
148
148
147
148
148
148
148
149
150
150
148
148
149
151
150
152
150
152
152
153
154
154
156
156
158
156
156
156
157
156
156
154
155
154
154
153
152
152
152
151
151
150
150
149
150
151
150
149
147
148
147
147
145
147
147
147
144
145
145
146
144
144
144
145
145
143
145
144
144
144
144
143
145
144
146
146
145
144
145
145
147
146
145
146
146
145
146
146
147
146
145
147
147
147
147
151
150
150
152
152
152
157
164
170
176
185
192
199
207
209
207
208
206
205
208
208
197
190
177
169
160
152
146
146
145
145
148
150
151
150
150
152
152
150
152
150
151
152
152
152
151
152
153
153
152
153
154
155
154
153
155
154
156
156
154
155
156
156
155
160
159
158
157
157
158
158
160
160
160
161
163
162
159
163
161
160
163
165
165
165
165
166
168
168
167
168
168
168
169
171
173
173
174
175
174
176
177
177
177
179
180
181
180
181
182
185
184
184
186
184
185
185
186
185
188
188
187
185
186
186
185
183
182
181
179
178
176
173
173
169
166
165
163
160
157
157
156
154
151
150
148
149
146
145
146
144
142
143
143
142
140
140
143
138
139
140
140
139
139
139
140
141
139
139
138
139
140
139
140
141
140
140
141
138
140
142
141
141
140
142
141
140
143
142
142
140
144
143
141
141
142
142
143
144
143
142
143
145
143
143
144
144
143
145
145
145
144
146
145
146
146
144
144
146
146
145
146
144
146
146
147
145
144
144
145
148
147
145
145
146
145
146
145
147
144
144
145
146
147
146
147
145
145
146
145
146
145
147
144
144
147
145
146
146
145
146
146
147
144
148
145
145
147
145
145
147
145
147
147
147
147
148
148
148
151
148
150
149
150
149
149
148
149
152
153
151
151
154
153
154
156
157
155
156
158
156
154
153
155
155
154
154
153
154
152
154
150
153
151
150
151
152
151
150
152
151
150
148
149
147
148
147
147
147
146
146
148
145
145
146
145
146
144
146
147
145
144
145
146
145
144
147
143
145
147
144
146
147
144
145
145
146
145
146
146
144
146
146
146
145
146
146
149
148
149
150
151
149
153
151
155
159
163
170
177
185
193
203
207
207
208
206
208
206
207
206
197
189
176
166
158
152
148
143
146
149
149
151
152
151
151
151
153
152
152
153
149
151
151
152
151
153
151
153
153
153
153
153
153
153
155
154
154
156
155
155
156
156
156
158
156
156
158
159
157
159
158
157
161
160
160
162
161
162
161
162
164
164
164
166
167
166
167
168
168
167
169
169
171
172
173
172
172
176
174
177
176
179
178
179
180
181
181
182
185
184
184
183
185
185
186
187
189
187
187
187
187
186
187
187
186
185
184
182
180
178
177
174
174
170
168
168
165
161
159
158
156
154
152
149
146
148
147
145
145
143
143
142
141
140
141
141
140
139
141
138
140
142
139
139
138
140
141
139
138
140
140
139
139
140
141
140
140
139
142
139
143
141
140
141
141
142
140
142
142
144
143
143
142
142
145
142
143
143
145
144
143
144
144
144
144
144
144
142
145
144
144
147
143
146
144
144
146
145
144
145
146
147
145
145
146
146
146
146
145
145
146
146
144
145
146
147
147
146
146
147
147
147
146
146
145
147
147
145
146
147
146
146
146
145
147
147
146
148
144
145
148
145
147
146
146
148
145
145
147
145
147
146
147
146
147
146
148
147
148
148
149
148
148
150
149
152
148
151
150
150
151
150
152
151
153
151
153
154
155
155
155
159
156
157
157
158
158
159
156
159
157
156
155
157
157
154
154
152
154
153
151
150
153
153
150
153
152
149
149
149
148
148
149
148
148
147
146
148
147
146
148
146
148
146
146
148
147
145
148
145
145
147
146
145
147
146
147
145
147
147
145
145
146
146
146
146
146
147
145
144
147
146
147
147
149
149
148
148
149
149
151
155
157
163
170
176
183
192
199
207
207
208
207
209
206
208
206
200
189
177
169
157
147
147
144
144
147
147
148
150
150
151
152
151
151
154
151
151
150
150
152
150
151
153
152
153
153
151
153
155
154
154
155
153
154
156
156
155
154
157
157
156
158
158
158
158
159
159
158
159
159
159
162
160
162
162
161
163
163
162
166
165
163
167
167
166
169
168
168
172
171
171
173
172
172
173
176
175
177
178
176
177
181
180
181
183
181
184
183
184
184
185
186
185
188
186
184
186
187
187
185
185
185
182
181
180
177
178
175
173
171
167
165
164
162
159
157
155
155
150
148
149
146
144
144
144
142
141
141
140
139
139
138
140
138
136
139
138
136
139
136
137
137
137
136
137
135
138
137
138
139
139
138
139
136
139
138
138
137
140
139
139
138
139
139
140
138
139
140
139
140
140
139
143
141
140
142
141
142
140
140
141
141
142
142
142
142
142
143
140
143
143
142
143
142
142
142
143
143
144
144
141
143
144
142
144
145
143
143
144
142
144
142
143
143
142
143
143
144
142
143
142
144
142
143
142
142
143
142
142
143
144
144
141
142
145
143
143
145
143
143
144
144
143
144
144
144
143
142
144
144
143
143
145
145
144
145
146
147
145
147
146
146
146
147
147
146
147
149
149
149
149
151
153
153
152
155
155
155
155
156
153
153
153
153
154
152
153
153
152
150
149
151
151
149
150
149
148
150
148
146
146
148
146
145
146
146
145
145
145
145
145
143
142
145
144
144
144
143
144
143
143
145
144
143
144
144
145
144
142
143
142
144
143
144
147
145
143
144
145
144
143
143
144
145
143
142
146
147
147
147
148
148
147
149
150
155
158
165
174
183
188
199
207
207
208
207
208
208
208
203
195
186
175
163
153
148
139
139
140
141
141
143
147
147
147
150
149
149
152
150
149
150
152
151
150
152
152
152
152
152
152
152
152
151
153
155
155
154
155
155
154
155
156
155
157
158
157
158
158
160
159
159
159
161
159
161
161
161
161
165
163
165
165
163
166
165
165
167
167
167
170
170
168
170
171
171
171
172
172
175
175
176
176
180
179
179
180
179
181
182
183
184
184
183
184
184
186
184
185
187
184
185
185
182
184
184
182
183
180
179
175
174
175
169
168
166
162
161
160
157
154
153
152
150
149
147
144
144
143
143
143
142
141
141
139
139
137
139
136
137
138
137
139
137
139
136
138
136
136
138
136
138
137
137
137
137
139
136
138
138
139
137
141
140
138
142
140
138
139
139
140
138
139
141
142
141
141
142
141
141
141
143
140
141
142
142
142
143
143
142
144
142
141
143
145
143
143
145
143
144
144
145
144
144
143
144
143
144
142
143
144
143
144
144
144
143
143
144
144
142
143
144
144
142
145
143
143
143
144
145
144
144
144
145
144
143
143
146
147
144
146
147
145
147
146
147
146
146
147
147
147
148
147
147
150
151
150
153
154
153
154
155
156
156
154
153
155
154
153
154
152
151
151
150
150
150
148
148
149
149
148
147
150
149
146
148
145
146
146
145
142
144
146
143
143
143
143
143
144
143
144
142
143
143
143
143
144
144
141
141
144
141
141
143
143
144
144
145
144
142
144
142
142
143
143
142
145
142
143
143
145
145
145
147
144
145
146
146
148
148
152
159
165
170
179
189
198
205
210
206
210
207
209
205
202
194
182
174
162
152
144
139
137
136
139
140
142
144
147
146
146
150
150
148
148
149
150
148
149
152
150
149
151
152
151
151
152
150
153
153
153
153
154
153
153
154
155
154
154
154
157
155
157
158
157
157
159
159
158
159
161
160
161
162
161
163
161
162
162
165
164
163
166
167
166
167
168
169
169
169
170
170
170
171
174
173
174
176
175
177
177
178
180
177
183
183
181
181
182
184
184
183
185
183
183
185
183
184
185
181
181
182
179
177
177
174
171
170
169
166
162
161
159
157
156
152
150
150
148
147
147
144
141
140
141
140
140
139
138
136
138
138
137
136
135
135
136
136
137
136
136
135
136
137
137
135
137
136
138
138
135
139
138
137
138
140
139
137
140
138
139
141
140
140
140
139
140
142
140
141
140
141
141
140
142
143
143
142
142
142
142
143
140
142
143
144
141
142
144
142
144
143
143
144
143
143
142
143
143
142
142
144
144
143
143
143
143
145
143
143
144
142
143
144
143
142
143
144
143
144
142
144
143
143
144
144
143
143
144
146
143
143
142
144
143
142
144
144
143
144
144
144
143
145
146
145
144
147
146
144
144
147
147
148
147
146
147
147
150
148
149
148
149
148
152
152
151
154
154
155
156
154
153
157
156
154
157
153
152
153
152
152
153
152
153
151
150
150
150
150
148
150
149
150
148
147
147
147
145
145
144
146
145
143
143
145
145
145
144
144
144
142
144
144
142
143
144
143
143
144
144
142
142
146
146
143
143
143
144
143
145
145
145
144
143
144
146
143
144
145
146
147
148
146
147
149
148
149
152
158
163
170
179
187
194
202
208
207
206
206
205
208
208
200
193
183
172
161
151
145
140
141
142
143
148
150
149
151
150
150
149
151
151
149
149
151
151
150
151
153
150
152
153
152
151
152
153
153
154
154
155
153
153
153
155
157
155
155
157
157
155
158
159
157
159
159
158
160
160
160
160
163
161
161
163
163
165
164
165
164
167
166
166
168
169
167
170
170
171
171
172
173
175
176
176
176
176
179
180
180
180
181
180
183
182
183
184
183
185
184
184
184
185
187
185
185
186
183
184
184
180
180
178
178
174
174
172
168
167
166
163
160
158
159
156
154
150
148
148
146
145
145
144
143
140
140
140
139
140
138
137
138
140
138
136
138
138
137
138
138
137
137
137
138
137
138
139
138
137
141
139
139
139
138
138
140
139
139
142
141
140
141
139
140
141
140
142
138
142
141
140
144
142
141
143
143
142
144
141
142
142
143
143
142
144
142
143
144
144
143
143
144
142
144
143
144
145
143
143
143
144
144
144
144
144
143
143
144
143
144
144
144
145
144
142
143
145
145
144
143
144
143
144
145
142
145
146
146
145
146
145
144
144
146
147
143
145
145
144
144
145
146
148
146
147
147
147
148
149
149
148
150
148
150
148
148
151
149
150
152
152
153
153
155
153
156
155
155
156
154
155
155
154
154
155
152
154
151
151
151
150
150
149
151
149
149
149
147
149
147
147
146
148
147
145
145
146
145
144
146
145
147
145
144
145
146
145
145
146
143
145
145
145
144
144
147
145
143
145
144
145
144
145
146
143
144
145
145
146
144
145
147
145
146
147
148
148
150
148
151
151
151
156
160
166
173
181
187
196
203
207
208
205
208
208
207
207
198
190
178
168
160
152
148
144
143
145
144
148
149
151
149
150
151
150
150
150
151
150
152
151
152
152
151
152
152
153
151
154
153
152
156
152
154
156
155
157
155
156
158
156
158
158
157
159
158
159
158
158
160
159
162
160
160
162
161
160
161
164
163
162
165
165
165
167
165
167
169
168
168
170
170
172
171
173
174
173
173
176
175
177
176
179
180
181
181
178
182
183
183
186
184
186
185
184
186
184
183
184
185
183
184
183
181
182
181
178
178
176
172
169
169
165
164
163
158
157
155
153
152
151
148
147
146
145
142
142
140
142
141
138
140
140
138
140
138
138
138
138
137
136
139
137
136
136
139
139
137
138
139
137
139
139
138
138
139
140
138
141
139
137
140
140
140
140
139
141
141
141
140
141
142
140
141
143
142
140
141
144
141
140
143
143
142
145
144
143
144
145
142
145
144
142
144
144
144
143
144
142
144
145
142
144
144
145
144
143
145
144
145
143
143
144
144
144
144
145
145
145
143
143
145
143
144
143
143
143
144
144
143
146
145
143
146
145
145
144
144
145
143
146
144
145
145
146
146
147
146
148
148
147
149
150
149
149
148
150
148
149
151
149
152
152
153
154
154
156
155
157
156
154
154
155
154
156
153
155
153
153
153
151
152
152
149
152
149
151
149
150
150
148
150
147
148
147
147
145
146
145
146
144
146
144
143
146
146
144
145
143
145
145
143
144
145
145
143
144
146
143
144
144
144
143
145
147
145
145
146
145
146
146
146
146
146
146
149
147
148
149
150
151
151
149
152
152
157
162
168
175
185
191
200
207
206
207
208
207
209
207
204
197
188
177
168
156
147
144
140
143
143
147
151
147
151
150
150
151
152
151
153
152
150
152
153
150
153
154
151
154
153
151
154
154
154
153
156
155
155
157
156
157
156
156
157
159
156
156
159
158
158
160
160
160
160
160
161
162
161
161
163
163
163
166
165
165
167
167
166
168
170
169
169
172
171
171
174
174
173
175
176
175
176
179
179
177
180
180
181
182
182
184
183
184
185
186
185
185
185
186
185
185
186
185
186
185
183
182
183
178
178
177
174
173
173
168
165
164
161
160
158
154
154
151
150
148
148
146
146
145
143
144
141
141
140
140
140
138
137
139
139
138
138
137
136
140
137
137
138
137
139
137
137
137
139
138
137
139
139
139
139
139
137
140
140
140
138
141
142
142
139
142
140
143
143
142
141
143
142
142
142
143
142
142
143
144
143
143
145
143
143
145
144
145
143
143
144
146
144
144
145
143
143
145
142
143
146
144
143
144
144
142
144
145
143
145
144
142
145
144
144
143
144
143
145
144
143
144
142
144
146
146
144
144
145
146
147
145
148
147
147
146
149
148
149
149
148
150
151
152
151
153
155
156
153
155
154
155
153
153
155
153
153
152
153
152
151
151
150
151
148
149
149
149
148
148
149
149
148
149
146
147
145
147
143
145
144
145
144
142
143
145
144
144
144
144
143
144
144
144
144
144
143
144
146
144
144
145
144
142
145
145
145
143
145
146
145
146
145
144
145
147
146
147
147
146
147
146
148
150
150
153
160
168
175
182
192
202
207
209
207
208
209
208
207
203
193
181
171
161
151
143
139
138
137
138
141
144
144
146
148
149
149
150
151
152
152
152
151
150
151
153
153
154
153
154
154
153
155
156
156
155
155
156
155
155
157
157
157
158
157
159
158
158
159
158
160
159
160
160
160
162
163
163
162
163
163
167
164
166
165
166
166
169
166
167
171
170
170
171
173
175
174
174
176
176
176
177
178
179
179
181
182
181
183
183
183
186
183
185
185
186
186
184
187
185
187
184
183
186
183
183
184
179
179
174
175
172
170
171
166
164
162
161
156
155
154
150
149
147
147
145
143
144
142
140
142
139
140
139
139
138
137
138
137
138
136
138
138
137
136
140
137
137
138
138
137
138
137
136
138
138
137
139
138
137
139
138
140
140
138
141
140
139
141
141
141
141
141
140
143
142
141
143
142
143
143
142
143
144
142
143
143
143
141
144
142
144
144
143
144
144
144
144
144
143
144
144
144
146
144
144
143
143
143
144
144
145
144
144
143
143
143
144
143
143
145
144
145
146
146
144
147
146
146
148
145
145
146
147
145
146
148
147
147
148
147
148
150
152
152
153
154
154
155
154
153
155
153
154
151
152
152
151
153
150
151
149
150
147
149
151
147
150
150
147
150
148
147
147
145
144
146
145
143
143
142
143
144
144
145
145
143
144
143
142
143
143
144
143
142
145
144
143
143
143
145
142
144
144
145
144
144
145
144
145
145
145
144
144
145
147
145
145
147
148
147
145
147
150
151
153
160
168
172
182
192
201
206
209
207
207
208
209
208
203
197
185
175
164
154
148
143
140
139
142
142
144
147
148
148
149
150
152
151
149
150
150
149
151
151
150
151
150
154
151
151
154
152
155
153
154
153
153
154
155
155
155
155
156
157
156
158
157
158
158
158
161
158
161
162
159
160
162
161
163
162
163
165
164
164
166
165
164
165
169
169
168
169
168
171
171
170
172
175
175
175
176
178
178
179
179
179
180
180
182
181
181
183
185
185
184
186
186
185
183
185
182
182
185
182
181
181
178
175
176
175
170
169
167
163
163
160
161
157
154
154
152
149
148
146
146
145
143
143
142
139
139
141
139
137
137
139
137
137
137
137
138
138
137
137
138
137
137
137
139
137
138
135
138
139
137
140
140
138
137
140
139
137
139
139
140
140
141
142
141
140
142
141
142
143
141
142
142
143
142
142
142
143
143
142
145
143
142
144
143
144
145
143
142
142
144
144
145
144
144
144
146
144
146
145
143
145
145
143
144
145
143
143
143
145
143
145
143
144
144
142
144
144
143
146
144
143
144
145
145
147
146
147
148
147
149
148
147
148
146
150
148
150
151
151
153
151
155
154
156
156
155
155
155
151
157
152
154
153
152
152
152
152
151
150
149
150
148
149
148
149
147
149
147
147
147
145
145
145
145
144
144
143
143
143
142
144
143
143
142
142
143
143
144
142
142
142
144
142
144
142
143
143
144
142
143
142
144
143
144
143
145
146
142
145
143
145
144
146
145
147
148
146
148
149
149
152
156
163
167
175
182
191
199
209
206
207
206
208
206
208
201
194
181
172
164
154
148
141
143
142
143
146
146
149
150
148
149
151
149
151
151
150
150
150
152
149
152
150
151
151
151
152
152
151
152
155
151
154
153
153
155
154
156
154
155
154
155
155
157
158
157
159
157
159
159
160
159
160
163
160
162
162
160
165
162
164
165
164
166
166
166
167
169
171
170
172
169
172
173
175
172
174
178
177
178
178
178
180
181
182
182
183
182
185
182
185
183
185
185
185
183
183
184
184
183
183
183
180
179
179
175
174
170
169
169
165
160
160
158
155
155
151
151
150
146
145
145
143
142
141
142
140
139
139
137
138
137
137
137
137
138
137
137
137
137
136
138
137
135
137
138
137
137
137
138
138
139
137
138
138
137
139
137
140
138
138
138
139
139
141
140
139
141
137
142
139
140
140
142
141
142
142
140
142
142
142
142
142
144
142
140
143
143
143
142
141
142
143
143
143
144
143
145
142
145
143
143
143
142
143
145
143
144
144
143
143
143
144
145
143
144
142
145
145
142
144
145
145
144
145
144
146
146
143
145
146
146
147
144
146
147
147
149
147
148
148
148
148
150
150
150
154
151
153
156
154
154
155
155
155
154
154
154
153
154
152
153
152
151
152
150
149
150
149
150
149
148
149
146
147
147
145
146
147
144
144
145
144
145
145
146
145
142
144
145
145
145
144
144
145
144
142
145
144
144
144
144
144
142
146
144
144
147
144
144
143
145
144
144
145
144
143
144
145
146
145
147
147
147
150
148
150
151
152
158
163
169
177
184
195
206
209
209
207
207
207
207
205
201
190
181
172
160
151
148
143
143
145
145
148
147
149
151
151
149
150
150
150
150
150
152
151
149
153
151
151
150
152
152
153
153
154
152
153
154
155
153
155
154
156
154
155
156
156
157
157
158
156
160
159
159
158
160
160
161
162
161
163
161
161
163
164
164
164
163
167
168
167
168
169
168
169
170
171
172
172
174
174
175
176
178
176
177
179
179
178
182
181
183
182
184
185
185
185
184
183
185
185
185
186
183
186
183
184
182
179
180
176
175
174
169
170
166
164
163
160
158
157
154
152
152
147
149
146
146
145
143
143
140
141
142
139
139
142
139
139
137
137
137
139
138
137
137
137
138
137
138
139
137
139
139
137
138
139
138
140
140
139
139
139
141
141
140
141
142
142
141
141
142
140
140
141
142
143
142
141
141
142
143
144
143
144
144
141
143
142
143
143
144
144
145
143
145
144
144
144
144
145
144
145
142
144
143
146
144
144
144
145
143
145
144
145
145
144
146
143
145
143
144
143
145
144
144
146
146
145
146
145
147
146
147
146
148
149
147
149
148
148
148
148
148
150
149
151
151
152
154
154
155
155
155
155
156
156
153
156
153
155
154
155
153
154
152
151
151
150
152
151
149
150
152
149
149
147
147
148
147
147
145
145
145
146
145
144
147
145
146
145
143
143
143
146
143
144
145
143
144
143
145
143
145
145
146
145
143
145
145
144
147
142
146
146
144
145
143
147
146
146
147
147
147
149
146
149
148
148
152
154
158
165
173
181
190
200
206
209
206
207
206
208
208
207
202
193
183
169
161
148
145
141
140
142
142
146
146
149
150
150
152
149
151
152
152
151
152
151
151
152
152
153
154
152
154
155
155
156
155
157
155
157
156
158
155
157
154
159
158
158
159
160
158
160
160
160
161
162
162
162
162
162
163
164
164
165
166
167
165
167
168
168
168
170
171
171
173
172
174
173
175
176
177
177
177
177
179
181
181
182
181
183
183
184
183
185
186
186
186
188
189
188
189
188
187
188
190
186
187
185
185
182
179
182
177
176
172
172
167
167
163
163
161
158
154
155
150
152
149
148
146
146
145
143
142
140
142
141
139
141
141
140
140
139
140
138
139
139
139
138
139
138
140
138
139
138
141
139
140
140
141
139
140
140
140
142
139
141
140
140
143
141
140
141
141
143
142
142
142
143
146
142
144
144
143
143
145
144
142
144
143
142
143
144
143
143
145
143
144
146
144
146
145
146
144
145
144
146
145
144
146
145
146
145
145
144
144
143
147
144
145
145
145
145
146
146
146
147
148
147
148
149
146
149
148
150
149
150
152
151
154
152
155
156
156
156
156
153
155
154
152
154
155
153
154
154
152
153
151
150
150
151
149
149
148
150
151
149
149
150
147
148
150
147
146
148
146
144
144
147
147
146
145
146
146
146
144
146
144
144
145
146
145
146
145
145
146
144
146
146
146
145
145
145
147
145
145
147
146
147
145
147
147
146
147
147
148
150
146
149
148
149
153
155
160
168
173
182
192
199
208
205
208
204
208
208
206
204
195
186
177
164
157
147
143
139
139
141
142
144
146
148
149
149
149
150
153
150
152
152
154
152
153
154
154
153
152
155
153
153
153
155
155
155
156
155
156
157
157
157
157
159
160
157
159
158
158
160
159
160
161
163
160
162
163
162
165
163
163
165
164
164
168
169
167
168
169
168
171
171
171
171
172
172
175
173
176
176
177
178
179
181
179
182
181
182
181
184
186
185
185
186
186
184
187
185
185
185
186
185
185
184
184
183
182
178
178
174
175
171
170
168
166
164
161
159
157
155
153
151
149
149
145
145
143
143
143
143
140
139
140
138
138
139
136
138
137
138
138
138
138
139
137
139
136
137
138
137
136
136
138
138
137
140
137
136
137
138
141
139
139
139
137
141
139
141
140
140
141
140
141
141
142
141
142
141
143
143
143
143
143
143
145
143
143
142
143
144
144
143
144
144
145
143
145
144
143
146
143
144
146
144
143
145
145
144
143
144
143
144
144
144
142
144
145
145
144
146
146
145
144
147
148
147
149
148
147
147
146
148
149
149
147
149
151
151
153
153
153
154
154
153
154
153
154
153
152
152
151
151
151
151
150
149
148
149
148
148
148
145
148
147
146
148
148
145
146
144
144
143
143
144
144
141
142
144
141
144
144
144
143
144
144
143
144
143
145
142
143
145
143
146
143
144
142
142
143
146
143
145
143
144
144
144
146
143
145
144
144
144
147
146
146
148
145
146
148
151
157
162
171
177
188
195
203
209
207
206
206
208
206
207
199
190
178
168
159
147
142
140
138
139
142
143
145
146
147
149
146
150
150
150
149
149
149
150
150
151
150
150
151
151
150
153
153
154
153
155
154
152
155
153
153
156
155
156
155
156
155
158
156
159
157
158
159
162
158
160
160
160
161
161
163
162
163
163
166
164
167
167
165
169
166
168
169
170
170
172
171
173
173
175
173
176
177
177
180
178
179
181
179
181
183
181
183
184
184
185
184
185
186
183
186
185
183
184
182
181
181
178
177
177
173
172
170
167
162
163
163
159
155
154
151
151
149
147
147
145
145
143
144
143
141
140
139
140
139
140
137
138
138
138
137
138
138
137
138
138
138
136
138
138
137
138
138
139
139
137
139
140
136
140
137
139
141
138
139
140
138
138
140
140
140
142
140
141
141
141
141
141
140
140
141
142
141
143
141
142
144
142
142
143
142
141
142
144
143
144
144
142
142
144
142
144
145
144
143
143
145
143
144
145
144
144
144
144
142
145
145
143
144
143
146
145
143
144
143
144
143
146
143
144
146
144
144
146
146
147
146
146
149
146
149
146
146
147
149
146
148
148
149
149
152
152
153
156
153
153
156
152
153
155
155
153
153
155
151
151
152
152
151
151
150
149
150
148
150
147
150
148
146
148
147
146
146
146
145
144
144
145
144
145
144
145
144
144
143
144
145
143
144
144
146
143
145
142
145
143
143
143
145
145
143
145
145
143
144
144
144
145
144
145
143
145
143
144
145
144
146
146
147
148
148
147
150
153
153
161
166
172
179
188
198
204
208
209
207
207
207
208
203
195
186
176
168
156
149
147
142
142
144
145
146
148
150
149
149
151
149
150
148
150
151
150
150
152
151
149
151
151
151
150
151
153
150
152
152
154
152
154
155
153
156
155
155
153
156
156
158
158
157
158
155
157
160
160
158
161
161
162
161
162
162
161
165
164
163
166
165
164
167
168
169
167
169
169
171
172
174
172
173
176
176
175
175
177
178
180
178
179
182
182
183
181
184
184
183
182
184
185
183
186
184
183
182
181
183
180
180
177
176
173
172
172
167
165
164
160
159
156
153
154
151
150
146
146
148
144
143
144
140
141
139
140
138
137
138
137
140
135
137
137
139
137
138
137
137
138
136
138
137
136
137
139
137
138
138
139
139
140
139
140
139
139
140
137
138
140
140
140
140
139
141
139
140
140
141
141
143
141
140
142
144
141
143
142
143
140
142
143
143
141
144
142
144
143
141
145
143
143
146
143
143
144
143
143
143
143
145
146
144
145
143
144
143
145
142
145
144
144
143
143
145
143
143
146
143
142
144
144
145
143
144
143
144
144
143
146
144
145
145
145
147
146
148
145
148
149
147
149
148
148
147
150
150
149
151
150
153
152
155
155
156
155
155
156
155
154
155
155
154
154
153
152
149
150
149
151
150
149
151
151
148
148
149
148
149
148
148
147
146
147
147
144
146
145
144
145
144
144
143
145
143
144
145
143
146
143
144
142
144
143
145
145
142
143
144
144
144
145
143
145
144
145
144
145
143
146
145
144
145
146
145
147
148
148
150
149
149
152
152
157
161
169
176
182
190
197
207
206
207
206
207
207
207
203
196
185
177
166
158
150
145
144
143
147
148
149
148
151
150
152
151
151
150
151
150
152
151
152
151
151
151
152
152
152
151
154
153
153
154
153
155
154
155
154
155
153
158
156
157
156
157
157
158
158
157
158
159
161
160
159
160
162
160
164
163
164
164
165
163
164
166
164
167
166
168
168
167
171
171
173
172
175
174
175
175
175
178
177
179
180
180
180
181
183
183
184
185
185
186
186
185
187
186
187
186
187
185
185
185
185
181
182
176
177
175
172
170
168
165
163
163
159
159
154
154
150
151
148
146
145
146
143
142
141
140
142
139
140
138
139
139
138
138
137
140
138
137
138
137
139
139
137
139
139
138
138
139
139
139
139
138
140
137
137
139
138
139
139
139
140
140
141
139
141
140
140
141
142
140
142
143
141
142
142
141
142
142
143
141
144
143
142
142
142
144
143
144
143
143
144
144
143
145
143
145
143
143
143
143
146
143
145
145
143
145
145
144
146
145
143
144
144
144
145
145
144
144
143
146
143
146
143
146
143
144
143
144
144
144
144
146
143
145
145
145
145
146
146
147
148
148
148
147
147
149
148
148
151
149
149
151
150
152
149
152
153
153
157
155
157
156
155
156
156
155
155
154
155
154
153
154
153
153
151
150
152
149
153
150
151
150
149
148
147
147
147
147
146
148
145
148
143
144
146
146
145
144
145
143
144
146
144
143
145
145
143
144
145
144
146
144
146
146
146
145
143
144
146
144
146
145
143
146
145
146
147
144
146
147
148
146
147
149
149
147
152
151
151
154
159
163
171
177
185
193
201
208
208
208
206
206
208
207
201
191
183
172
164
153
149
143
144
143
148
148
148
151
153
150
152
151
151
152
150
152
151
153
151
151
152
151
153
152
154
153
155
153
153
153
154
154
154
155
154
154
154
156
156
155
158
159
158
157
157
160
158
160
159
161
162
160
162
163
162
163
163
164
166
166
165
166
166
170
168
168
169
170
170
172
172
171
174
174
175
176
178
177
179
178
180
181
181
183
183
185
183
184
186
185
187
185
186
187
187
188
188
186
185
184
184
183
181
179
179
175
172
171
168
167
163
163
159
158
155
154
150
150
149
148
148
144
144
142
143
140
142
139
138
139
140
137
137
137
139
137
138
137
138
136
138
136
138
136
139
138
138
139
139
136
139
138
140
139
138
140
139
141
140
139
140
139
143
140
140
140
140
142
141
142
141
142
142
139
143
142
142
143
143
142
142
142
144
143
142
144
142
142
142
143
143
143
143
146
143
145
144
146
143
143
146
143
144
145
144
143
145
145
142
144
144
144
144
143
143
145
145
143
145
143
145
144
144
144
144
145
144
145
145
143
143
143
146
144
145
146
146
146
145
147
147
146
148
147
149
149
147
149
148
149
150
149
150
149
150
152
153
153
156
155
156
155
158
156
158
154
156
156
155
155
153
154
154
155
153
153
150
152
151
151
150
150
150
149
147
149
150
149
146
148
146
146
146
145
144
145
145
144
144
145
146
146
144
145
146
144
143
146
147
145
144
146
146
143
145
146
143
147
144
145
145
145
145
144
144
146
145
144
145
146
144
147
147
147
148
148
147
148
151
149
155
156
164
170
181
187
197
206
207
206
207
207
207
209
208
200
192
181
169
158
151
144
140
140
139
142
142
147
149
150
152
150
151
150
151
151
151
151
151
151
151
153
152
153
155
153
155
154
157
153
156
157
155
157
157
157
157
157
158
158
160
159
160
158
160
160
161
161
161
162
162
161
164
162
163
164
164
164
165
167
167
167
168
168
168
171
171
171
173
171
173
174
175
174
177
177
178
179
178
180
181
179
183
182
183
186
184
185
185
188
187
187
186
187
187
184
188
188
188
185
184
183
182
180
181
178
175
175
172
168
168
166
163
162
160
155
155
152
150
150
147
148
146
145
144
142
142
142
139
140
140
140
137
138
139
137
138
138
138
137
139
138
139
139
140
139
138
138
137
139
139
139
140
140
140
140
142
137
141
141
140
142
141
142
141
142
140
140
143
142
142
142
144
143
143
143
144
142
144
142
146
142
144
144
146
144
144
146
143
146
146
144
147
145
146
146
144
146
145
143
145
145
144
146
144
146
144
145
144
145
144
146
143
145
145
145
145
146
146
146
145
148
145
146
149
148
149
148
145
148
148
149
149
148
150
150
151
150
152
153
151
155
157
153
155
154
154
155
154
154
154
154
154
152
153
152
151
150
150
150
150
151
149
150
148
150
149
147
149
147
145
146
145
146
145
144
144
144
143
144
144
145
146
145
143
143
145
144
144
142
144
144
142
143
146
145
145
146
144
146
145
145
145
144
145
145
143
147
144
144
145
144
143
144
146
147
146
145
147
146
147
148
152
156
159
169
177
185
194
203
206
207
207
206
207
206
208
197
190
180
169
158
148
142
139
137
139
139
140
143
143
146
147
148
148
149
149
150
149
149
152
150
150
150
152
150
153
153
152
154
153
154
154
155
154
155
154
156
156
156
159
156
156
157
158
158
159
156
158
160
161
160
159
160
159
160
161
161
163
162
162
163
163
165
166
167
165
167
168
169
169
171
172
173
175
173
174
175
177
176
177
178
177
178
179
181
182
183
182
183
184
182
184
183
187
184
185
185
188
183
184
183
183
182
178
178
176
173
172
170
170
166
164
161
160
157
155
153
150
150
147
145
145
143
144
142
142
140
140
139
138
138
137
139
136
137
137
136
137
136
138
137
138
137
138
137
139
137
137
137
137
136
138
138
136
138
137
138
139
140
138
137
139
140
140
141
140
141
140
139
141
140
141
143
141
144
142
144
143
143
143
144
142
141
143
141
142
143
143
144
141
143
144
141
145
144
144
146
145
143
143
146
144
145
145
143
144
142
145
145
143
147
146
147
146
148
149
146
146
146
146
146
145
146
147
145
147
147
148
146
149
147
149
153
151
155
154
155
154
154
155
153
152
153
151
152
153
149
151
151
148
150
149
149
150
148
151
147
149
150
151
147
148
147
145
146
145
144
145
146
145
144
145
144
144
142
146
147
145
145
145
145
142
145
145
146
145
146
145
144
146
145
143
145
145
146
146
146
146
145
147
146
145
146
147
147
148
148
148
148
147
147
148
147
151
153
158
163
172
177
188
196
203
206
208
207
209
206
208
199
193
183
178
167
155
149
143
138
139
140
142
144
146
148
149
152
149
151
148
151
150
151
152
151
154
150
153
151
154
154
153
155
153
156
153
156
156
156
156
159
157
158
157
157
156
160
156
159
158
160
159
161
160
162
160
162
160
162
162
162
165
163
164
165
167
168
167
169
168
168
170
167
170
169
170
171
171
171
174
175
175
176
177
179
178
180
179
182
180
182
181
180
181
183
183
182
184
182
184
182
183
182
182
183
180
179
177
177
174
175
171
171
168
166
165
164
160
157
157
153
154
150
152
148
147
145
148
145
144
144
142
141
139
140
139
140
139
140
140
140
140
138
139
139
138
139
139
140
139
138
140
138
140
138
141
141
142
140
141
141
140
141
140
142
141
142
141
141
141
142
141
142
141
143
143
142
142
142
142
145
142
144
143
145
144
144
143
144
144
146
142
145
143
144
144
143
145
145
146
144
145
146
145
146
145
145
146
147
146
147
148
147
148
147
148
150
147
150
147
148
150
151
150
153
153
154
154
156
154
153
152
153
151
154
151
151
152
151
150
149
149
150
147
150
148
149
148
149
150
149
148
148
145
145
147
143
145
145
143
144
143
143
142
144
143
145
143
143
143
143
144
142
143
143
142
142
144
143
145
142
144
142
143
144
145
144
143
145
143
144
143
143
143
143
144
145
145
147
146
148
147
147
147
148
148
150
155
159
168
173
183
190
199
203
208
208
207
206
204
196
190
182
174
166
157
147
140
137
136
137
139
140
144
144
147
147
147
148
150
150
152
149
150
150
150
150
149
152
151
151
152
152
152
152
153
152
153
153
152
153
154
153
153
157
156
156
156
157
158
156
156
157
160
157
160
159
159
161
161
163
161
164
162
162
163
164
166
165
167
166
166
168
166
168
169
169
170
171
173
171
173
173
175
173
175
175
177
177
179
180
179
182
180
180
182
179
182
180
181
181
181
182
181
181
178
179
177
176
175
173
170
168
166
166
161
161
157
157
154
153
150
150
146
146
143
146
144
141
140
142
138
140
139
138
137
138
137
137
140
137
136
138
137
140
137
139
137
138
138
136
140
137
138
140
139
142
139
140
138
140
138
140
140
139
141
139
142
140
141
139
140
141
142
142
141
141
141
140
143
142
143
141
143
141
143
144
143
144
144
145
143
146
142
144
144
143
145
144
143
144
144
145
143
144
145
145
143
145
143
146
143
147
145
147
145
149
147
147
146
146
147
147
149
147
148
148
149
150
151
152
151
152
154
153
154
154
156
155
155
154
153
153
152
152
152
152
152
150
148
152
150
151
150
149
149
149
146
148
149
146
148
147
146
145
145
145
144
146
143
145
144
143
143
145
145
143
144
142
144
142
145
143
144
145
144
143
144
143
144
143
144
145
145
143
144
144
145
143
144
143
147
146
143
147
147
145
146
148
147
148
149
151
151
156
160
169
176
182
194
201
207
208
208
207
207
209
205
199
191
183
171
164
155
151
145
144
144
144
146
147
148
148
150
150
148
148
148
151
149
149
150
147
150
150
150
149
152
151
149
150
150
151
149
151
151
153
152
152
153
153
154
156
154
155
155
153
158
156
156
155
157
157
156
157
158
159
158
160
158
161
159
160
162
163
164
162
164
164
165
166
167
169
167
170
171
171
171
171
172
175
172
174
175
177
177
177
176
180
178
180
180
181
180
181
180
179
182
180
182
180
180
178
179
177
176
174
172
171
168
167
166
164
161
158
157
153
153
151
150
149
148
147
144
144
142
142
140
140
140
140
139
139
140
138
139
136
139
138
140
137
139
139
138
139
136
139
138
140
138
139
140
139
139
139
139
141
140
141
139
139
141
139
141
141
139
140
140
140
140
140
140
141
142
143
142
141
141
142
142
143
143
143
141
144
144
143
144
143
145
144
142
145
143
143
144
143
144
144
144
143
144
142
143
144
146
144
143
144
146
144
146
145
146
143
144
143
144
144
147
144
145
144
147
145
146
146
148
145
149
149
146
148
147
149
147
150
148
150
150
152
151
152
153
154
153
154
153
155
152
152
151
153
153
150
151
151
148
151
146
148
148
149
147
149
149
147
146
146
146
146
144
144
145
146
144
144
142
143
142
144
142
142
143
143
143
144
144
143
143
144
145
144
143
145
144
144
145
144
143
145
144
145
145
143
145
144
146
147
142
144
145
146
145
146
147
150
148
148
148
149
151
153
156
162
169
171
181
185
194
201
207
207
207
210
206
203
202
195
190
180
170
163
154
148
148
145
148
148
150
150
152
149
151
150
151
150
151
150
152
152
149
151
149
152
150
151
151
152
151
153
153
153
151
154
154
151
153
153
156
154
155
156
155
157
156
157
157
157
157
159
159
161
158
159
158
161
161
160
161
162
163
163
165
164
164
165
165
166
167
167
168
168
170
170
171
169
173
172
175
175
177
175
176
179
177
178
180
180
180
180
180
182
181
183
182
182
181
181
182
182
179
180
178
180
175
175
174
170
172
169
166
162
163
158
158
153
156
152
151
147
148
145
145
141
141
142
139
141
139
140
139
139
136
138
137
138
137
137
138
136
137
138
137
137
139
138
138
139
136
137
140
139
137
140
138
138
139
140
140
138
139
141
140
141
139
139
140
140
142
140
142
139
142
141
140
141
142
142
140
144
141
144
142
142
144
143
143
142
141
141
144
141
143
144
142
143
144
143
144
145
143
143
143
142
145
143
143
145
143
144
144
143
144
142
145
142
146
145
144
143
145
146
143
145
146
143
144
144
144
145
145
145
147
145
145
146
147
146
148
147
148
147
148
149
149
149
149
149
150
150
150
151
153
152
155
153
155
154
155
153
154
156
155
156
154
154
152
154
151
152
150
152
148
151
151
149
149
148
149
147
147
148
146
148
145
146
145
146
145
146
144
144
144
145
143
145
144
146
143
144
144
142
143
145
144
144
143
146
144
143
145
144
143
145
145
143
142
146
145
144
145
143
145
144
146
144
145
147
146
148
147
149
149
151
152
152
156
161
168
173
181
189
194
205
208
209
206
209
207
206
199
191
185
174
168
159
152
147
146
148
148
148
150
149
151
153
150
152
151
151
151
149
151
153
149
153
151
149
151
150
151
153
152
153
152
153
153
154
154
155
156
155
155
156
155
156
156
157
155
158
157
157
157
159
158
159
160
161
160
160
162
160
162
162
163
162
166
164
165
166
168
167
168
168
171
170
169
171
170
173
174
174
176
175
175
178
179
181
180
181
183
183
180
184
182
185
184
185
185
187
185
186
187
184
184
182
183
180
181
177
178
172
174
170
169
164
163
160
158
156
154
154
151
151
147
146
146
143
142
142
142
141
140
138
140
137
139
138
138
139
137
138
139
136
139
137
137
139
136
137
138
138
138
137
140
138
137
137
139
139
140
140
139
138
138
138
140
142
141
139
140
137
140
140
140
139
142
141
140
143
140
142
143
142
142
144
141
141
142
140
141
141
142
144
143
142
144
142
145
143
144
143
143
141
144
144
141
143
143
143
142
143
142
145
144
143
143
143
145
145
143
142
144
143
144
146
144
145
145
146
144
144
144
145
145
144
145
144
143
145
145
144
143
147
144
144
143
143
145
146
146
145
146
146
146
149
149
149
148
148
148
149
150
147
149
150
149
150
151
150
150
153
155
155
156
155
156
155
156
154
155
155
153
154
154
152
151
151
152
150
153
150
152
150
150
150
149
150
147
148
148
147
147
146
145
146
143
145
143
144
143
145
144
145
143
144
144
144
144
145
143
146
144
142
145
145
142
145
145
144
144
143
144
145
143
145
143
143
145
144
144
144
145
144
147
145
147
147
148
150
148
149
150
150
155
156
163
166
174
181
190
199
204
208
206
210
206
208
209
204
196
186
178
168
158
150
148
144
146
145
149
148
150
151
152
152
151
151
151
150
151
151
151
151
151
153
150
153
150
152
152
152
154
153
151
155
152
154
154
155
153
154
155
155
155
155
157
158
158
156
158
158
159
161
159
159
161
161
161
161
161
161
165
163
165
163
166
166
166
165
168
168
170
169
170
172
170
174
174
174
174
176
177
177
179
179
180
182
182
182
185
184
184
187
184
187
186
187
186
187
187
186
186
187
186
185
183
181
181
178
179
174
174
171
168
167
164
163
160
157
155
153
152
151
148
148
146
146
143
144
142
142
141
139
141
140
139
138
139
138
139
138
140
139
139
138
138
138
137
138
138
139
140
137
138
138
138
139
139
139
140
139
141
141
140
139
143
139
140
142
140
142
142
141
142
140
143
144
143
142
141
143
143
142
144
143
142
141
144
143
142
142
144
144
143
144
143
145
144
143
144
144
145
143
144
147
144
144
145
144
145
145
146
146
145
147
144
145
145
145
145
144
145
145
145
144
145
145
144
144
144
146
145
144
145
144
146
144
144
145
144
143
147
147
146
147
146
147
148
149
148
147
149
149
147
150
148
150
150
149
150
149
151
154
153
153
155
157
157
156
156
155
155
155
154
155
153
155
153
152
153
152
152
152
151
152
151
151
150
152
150
149
149
149
149
148
148
147
145
146
147
147
146
144
146
145
145
144
146
144
144
145
144
144
146
144
142
144
145
144
146
145
145
147
145
144
145
144
144
147
145
145
147
146
145
146
147
146
147
148
147
148
149
148
150
149
151
157
160
167
175
183
193
201
208
208
208
206
207
205
208
205
196
186
178
166
155
148
141
140
139
141
143
144
146
148
149
150
151
150
151
152
151
154
152
153
153
152
152
152
154
153
153
154
153
153
153
156
156
156
159
157
156
157
158
158
158
159
157
160
157
161
159
160
159
162
160
163
162
163
162
165
163
166
165
166
165
165
166
167
167
169
169
170
169
172
172
173
175
174
176
176
179
177
179
179
180
182
182
181
183
183
182
183
185
185
186
186
186
185
187
186
187
185
185
184
185
183
183
181
182
177
177
172
173
169
167
165
163
161
158
156
156
154
153
151
149
148
146
144
145
143
142
142
139
140
139
140
139
139
140
139
139
139
138
139
138
140
138
140
139
139
140
138
140
139
140
138
138
139
140
138
140
140
140
140
140
140
141
140
142
140
143
141
142
144
142
144
143
141
144
143
142
144
144
145
145
143
145
142
145
144
143
145
144
144
145
145
145
144
145
145
145
146
144
144
145
146
146
146
145
146
144
144
145
144
145
145
147
144
147
145
147
146
148
145
146
145
146
144
145
143
147
147
146
147
145
145
147
148
148
148
147
149
150
148
151
147
149
149
149
148
148
149
150
151
150
153
152
154
155
155
156
155
157
156
156
156
155
156
153
155
153
153
150
150
151
151
150
149
151
150
150
147
149
149
148
147
148
147
148
145
148
144
146
145
144
144
145
147
146
145
145
145
145
145
144
147
145
143
144
147
144
145
146
145
145
143
145
146
147
144
145
145
147
147
146
148
147
146
147
146
145
150
149
151
148
149
150
151
151
158
162
169
179
187
193
202
206
206
210
207
208
206
205
200
191
183
171
160
153
144
140
140
139
144
144
146
148
151
149
151
151
151
152
153
151
152
153
152
153
154
153
154
154
154
155
154
153
155
155
156
156
157
157
156
159
156
159
158
157
158
159
159
161
160
159
161
159
161
161
162
164
162
162
164
166
166
164
168
166
167
168
168
170
169
169
173
171
173
173
174
174
174
177
176
178
178
179
178
180
180
182
182
183
183
183
186
185
184
187
186
185
186
188
188
189
185
186
184
184
184
180
181
179
176
175
172
170
170
167
164
163
159
159
155
154
153
150
151
147
149
145
144
144
143
143
141
141
143
139
140
140
141
141
139
139
139
136
137
141
138
141
139
139
140
137
140
140
138
141
140
142
139
140
141
140
140
141
141
142
142
141
143
143
141
143
142
143
141
143
143
144
143
143
144
144
145
143
145
144
146
146
145
145
147
146
144
146
145
144
146
146
146
145
146
148
144
146
147
147
146
147
147
146
145
147
146
146
146
146
147
145
145
146
147
147
146
144
147
144
144
146
146
145
146
147
145
146
146
148
145
146
147
144
146
148
146
146
147
145
147
146
145
147
148
146
149
147
146
149
148
147
151
148
151
151
152
148
150
152
149
152
151
152
152
152
153
155
155
156
158
157
158
156
157
155
156
156
155
157
155
156
152
154
153
153
153
152
152
151
152
153
151
152
151
149
152
149
150
148
148
147
149
147
148
146
147
145
147
146
146
147
147
146
145
147
147
147
146
146
145
146
146
145
144
147
146
145
148
148
147
146
148
146
146
147
148
146
146
147
147
150
148
150
149
150
150
152
153
156
162
165
172
179
185
195
202
208
207
206
207
207
207
207
203
193
184
175
164
157
149
146
144
146
146
148
150
152
152
154
151
152
154
153
153
152
153
153
153
153
152
153
153
152
156
154
153
156
154
157
154
157
156
157
156
156
156
160
159
160
160
158
160
158
161
161
161
162
161
163
162
165
163
164
163
166
165
166
164
167
167
169
168
170
169
170
169
172
170
171
172
174
174
174
175
175
178
177
180
179
181
183
180
183
183
184
186
185
187
186
186
185
187
186
187
186
187
186
187
186
184
184
181
178
179
178
172
172
169
168
167
162
161
159
156
156
155
152
150
151
149
145
145
144
143
144
143
140
140
139
140
141
140
141
139
139
141
138
140
139
141
139
139
139
140
138
140
138
140
140
140
140
141
139
140
139
140
141
142
139
143
140
143
142
140
142
142
143
142
143
141
143
143
144
142
146
143
144
143
143
143
143
145
145
146
144
145
145
145
146
146
146
147
144
147
144
145
145
146
147
144
145
146
146
145
146
146
144
147
146
145
145
145
146
148
147
144
145
145
144
146
146
145
145
145
146
145
145
147
145
146
147
146
144
146
147
145
146
146
146
146
147
147
147
145
147
146
145
147
147
145
147
148
148
149
148
147
149
150
147
151
150
151
151
150
151
151
152
151
153
153
153
158
156
159
157
156
156
156
155
156
156
154
154
154
154
152
151
152
151
152
152
153
150
152
152
149
152
150
147
150
148
149
147
147
147
146
145
145
146
146
143
145
145
145
145
145
146
145
147
144
145
145
146
145
144
146
147
145
144
144
145
146
146
147
145
146
146
146
145
146
147
147
146
148
148
149
149
150
152
150
151
152
156
159
162
172
176
185
195
202
207
207
207
208
209
206
208
201
191
182
171
163
154
149
146
145
146
146
149
150
153
151
150
151
153
150
153
151
151
153
151
152
153
150
154
152
153
153
152
153
154
154
153
154
155
153
155
154
157
155
156
157
158
157
159
159
159
158
160
159
161
158
161
161
161
163
163
161
163
165
162
165
164
165
167
166
167
169
167
169
170
170
172
172
171
174
175
176
176
177
179
178
178
179
178
182
180
182
184
184
184
183
186
185
185
186
185
186
186
185
186
185
184
184
182
181
178
178
176
174
174
170
168
164
164
160
159
157
153
153
152
151
148
148
144
144
142
143
141
139
139
139
138
138
137
139
137
137
137
139
138
139
138
137
138
137
141
139
138
139
137
139
138
138
139
137
138
139
141
140
137
140
140
138
141
139
140
140
140
141
140
142
142
142
140
143
141
142
140
144
141
143
141
142
141
142
140
145
143
143
142
143
142
144
143
144
142
143
141
144
143
145
143
145
143
146
144
142
145
144
143
141
143
143
143
144
142
142
142
143
143
145
143
143
143
142
144
144
142
145
143
144
145
143
142
144
142
144
144
141
145
142
144
144
144
144
144
143
144
145
143
146
143
144
145
145
145
144
146
145
148
146
149
147
145
148
146
150
147
148
147
149
148
149
150
150
152
150
153
155
154
156
155
158
155
157
155
156
154
154
154
155
153
154
153
153
151
152
148
152
151
151
151
150
150
152
147
149
148
148
148
148
149
148
148
148
144
147
145
144
145
146
145
146
145
146
145
146
146
145
147
146
144
146
145
144
146
146
145
146
144
146
143
145
145
146
145
145
147
145
147
146
147
148
148
149
148
150
148
150
151
154
158
164
171
178
186
195
203
208
207
208
207
208
206
207
199
190
181
170
159
153
147
142
143
143
145
147
150
150
151
151
152
150
152
152
150
153
150
152
153
151
152
150
154
153
153
152
155
152
154
154
155
154
156
154
156
155
158
156
157
156
159
156
157
158
159
159
159
160
160
161
160
160
162
162
163
163
164
163
164
165
166
167
166
169
167
168
169
170
171
170
172
171
173
175
175
175
177
179
178
177
180
180
181
181
181
185
182
184
186
184
185
184
184
187
186
185
184
185
182
185
183
182
179
180
177
176
173
172
170
166
166
164
158
158
155
155
151
150
150
148
146
143
144
142
142
140
139
141
138
137
137
138
137
137
137
135
136
137
137
136
138
138
136
137
138
135
137
136
136
139
136
140
137
138
137
138
137
137
138
138
139
139
140
139
140
140
140
141
141
140
141
141
141
141
142
144
141
142
142
141
142
140
142
142
144
142
143
142
143
142
144
142
143
144
142
143
144
144
144
143
143
143
141
144
141
144
144
144
144
144
142
143
142
142
144
143
142
144
143
143
144
143
144
142
144
144
143
142
144
143
143
143
143
143
143
143
143
142
143
144
143
144
142
143
145
145
143
146
146
147
145
146
148
147
146
148
146
149
148
148
150
151
150
151
151
154
155
154
156
157
157
155
155
153
156
153
153
154
152
152
153
152
151
152
150
151
148
149
148
150
148
148
148
148
148
149
145
146
147
144
145
145
146
145
145
144
146
143
144
144
145
142
145
146
144
144
145
145
145
143
145
144
145
145
143
145
146
143
146
144
145
146
147
144
145
148
147
146
146
148
149
148
150
149
148
150
152
155
162
171
177
186
195
204
207
209
207
207
206
208
207
198
189
181
170
160
149
142
139
138
140
140
143
145
146
149
150
148
150
150
151
153
150
152
153
153
152
154
153
154
152
154
154
155
154
155
154
154
156
154
156
157
157
159
157
159
160
158
160
158
159
159
161
159
161
160
161
163
161
162
163
162
165
165
165
165
167
166
166
169
168
169
171
170
172
171
173
173
173
174
175
175
177
178
179
181
179
181
182
183
184
183
184
186
185
184
185
186
184
186
185
186
188
188
184
187
183
183
183
181
179
179
176
173
172
169
166
163
162
162
160
157
154
152
150
149
150
146
144
144
143
140
141
141
139
141
139
139
137
137
139
136
138
136
138
138
136
137
138
136
139
140
137
140
137
136
137
139
139
138
140
137
139
137
138
140
138
141
139
141
140
139
143
140
144
142
142
141
142
143
141
144
142
144
142
144
144
143
144
146
144
145
142
144
143
145
144
143
145
146
143
144
143
144
145
144
145
145
144
143
145
142
144
146
144
144
145
144
143
143
146
144
144
145
144
143
145
144
146
144
143
144
144
143
144
144
145
144
145
144
143
146
144
145
145
144
145
146
147
146
147
147
148
148
146
148
148
148
149
150
150
151
151
152
154
153
155
156
153
156
155
153
153
155
151
153
152
151
152
151
152
151
151
149
151
150
152
148
150
148
147
147
147
149
146
147
146
147
145
144
146
145
145
144
145
145
144
146
145
145
143
145
145
143
146
143
145
145
144
144
144
144
145
144
144
145
145
145
145
145
144
143
145
145
144
147
144
146
148
147
148
148
150
151
150
156
158
165
175
180
191
196
208
208
208
208
208
208
206
201
192
183
173
163
153
145
142
142
141
142
144
148
149
150
150
151
149
150
151
151
148
151
151
150
151
152
152
150
152
153
152
153
153
155
153
153
154
154
156
156
156
155
157
157
155
157
158
159
158
158
158
159
161
161
160
160
161
162
162
161
163
162
164
166
165
164
165
166
166
167
167
169
170
169
169
171
172
172
172
174
175
176
176
179
180
177
179
179
182
181
182
182
183
184
185
184
185
186
184
187
185
185
185
185
183
183
181
181
180
177
176
173
171
168
165
164
163
160
157
159
153
153
150
148
147
148
146
144
143
143
142
139
138
141
138
138
140
138
136
138
138
136
137
138
136
137
138
138
137
138
136
140
138
136
138
139
137
139
139
138
140
140
138
140
139
137
140
141
140
139
140
139
139
140
141
142
143
140
142
142
143
142
142
143
143
142
143
143
143
142
144
143
142
142
143
144
142
142
144
145
143
142
143
142
145
144
143
142
143
145
145
142
144
143
143
144
142
143
144
144
143
143
143
144
145
143
144
144
142
142
144
145
144
143
145
143
146
144
143
145
145
144
143
144
146
145
143
146
146
146
146
147
149
148
148
149
147
149
148
148
150
148
149
151
151
150
150
153
155
154
155
155
157
155
156
152
153
155
157
154
155
154
153
151
151
152
150
151
151
151
151
150
148
150
150
149
149
147
146
147
146
144
147
148
146
145
144
145
145
144
143
146
145
145
145
147
145
145
143
145
147
145
144
145
144
146
146
144
145
144
146
146
144
145
146
147
146
144
146
145
147
147
146
149
148
148
149
149
149
154
158
163
167
177
183
190
200
207
206
209
206
206
209
206
202
191
181
172
163
154
146
144
141
143
145
147
148
148
151
151
151
151
150
154
151
151
151
151
151
152
153
150
151
152
151
152
153
154
152
153
152
155
156
154
155
155
156
158
156
157
159
158
159
159
158
159
159
160
161
161
160
162
162
161
162
164
162
163
166
165
165
166
166
168
167
169
170
169
171
172
172
170
174
173
175
176
176
179
178
180
180
180
181
181
183
184
183
185
186
186
186
185
185
187
186
185
188
185
185
186
184
182
180
181
175
176
174
172
169
168
166
162
160
160
155
153
153
152
148
148
146
144
144
144
142
140
140
140
140
139
140
139
137
138
138
138
137
138
138
138
138
138
137
138
139
138
139
138
138
139
139
140
140
138
139
140
140
139
141
141
139
138
140
140
141
141
141
141
143
140
142
143
144
142
141
143
144
143
144
142
144
144
143
145
144
142
143
142
146
145
144
144
145
144
144
145
144
143
148
144
143
143
145
145
145
144
145
146
145
144
144
146
145
144
145
146
145
144
143
145
145
145
144
145
145
143
145
145
144
144
144
146
144
145
145
146
143
145
145
145
147
147
146
148
148
149
149
147
149
149
149
150
150
148
150
149
152
152
153
154
155
155
157
157
155
156
156
156
156
154
155
154
155
156
152
153
152
152
152
150
151
148
152
150
150
150
148
149
148
146
146
146
146
146
145
147
144
145
145
146
144
145
147
144
145
144
145
145
146
144
146
143
145
144
144
143
147
145
144
144
145
144
143
145
145
143
144
145
145
146
145
146
146
146
148
149
147
147
148
148
155
158
161
168
176
183
194
202
208
207
207
205
208
206
207
203
193
184
170
161
152
146
141
142
143
145
145
149
150
148
148
151
150
150
150
151
148
152
152
152
152
152
151
152
153
152
149
153
152
152
155
152
154
153
155
152
155
157
156
157
157
156
157
159
158
159
160
159
160
160
161
160
163
164
163
163
163
163
165
162
165
167
167
167
168
169
168
166
171
173
170
171
175
174
174
175
178
177
179
179
180
179
180
181
182
184
183
185
187
186
187
185
188
187
188
187
185
187
187
184
187
184
183
182
179
178
176
175
171
170
167
165
164
161
157
157
154
151
152
147
146
145
143
141
142
141
140
141
139
139
138
137
137
138
137
136
137
138
136
138
138
137
137
137
138
136
137
138
137
137
140
137
137
139
138
138
139
139
140
139
140
140
140
141
139
140
140
140
140
143
140
142
142
144
142
142
143
142
140
143
141
143
143
141
143
144
144
143
143
144
144
143
143
142
144
144
142
144
144
143
144
143
143
142
144
142
142
144
143
143
144
143
145
144
145
143
145
144
144
143
144
142
145
145
143
144
144
143
143
145
146
145
144
145
146
146
147
147
147
147
148
147
147
149
149
147
147
150
150
150
152
151
152
153
154
154
156
155
155
155
154
154
154
154
152
153
152
153
150
151
150
153
150
149
150
148
148
149
150
147
148
146
147
148
145
146
144
144
145
144
143
143
143
145
143
143
145
143
142
144
142
145
144
145
144
143
144
145
143
146
144
145
143
142
146
143
144
143
145
143
143
146
144
144
145
146
145
147
147
146
149
147
147
150
153
158
166
173
182
192
201
206
206
208
207
210
208
209
202
194
186
172
163
153
144
141
138
137
138
140
142
144
145
147
149
150
149
150
149
150
149
151
149
152
151
152
150
152
153
153
154
154
154
154
155
154
154
155
156
156
155
157
157
158
158
156
158
157
157
161
159
158
160
162
161
160
161
164
163
162
163
164
166
165
164
167
167
166
168
169
169
171
172
171
173
173
173
174
173
177
177
177
179
179
181
182
181
182
185
183
186
182
183
186
185
187
188
186
187
184
185
186
187
186
184
182
182
180
177
177
174
173
169
167
165
162
160
158
157
154
152
151
149
147
147
144
144
145
141
141
141
140
140
138
139
138
139
137
138
138
138
136
138
136
137
137
137
137
136
136
138
138
136
139
139
136
137
138
137
138
141
139
138
140
140
140
140
142
140
140
142
142
140
141
142
142
142
143
141
142
143
144
143
143
143
143
144
143
143
145
143
145
144
144
143
142
144
143
146
143
144
143
144
142
145
143
144
144
143
144
144
144
144
145
144
143
146
144
145
142
143
141
144
143
145
143
142
144
143
143
144
143
145
143
142
143
143
144
147
145
144
148
147
146
147
146
147
148
146
148
147
148
148
148
150
153
151
154
152
154
155
153
154
155
154
155
152
153
151
153
151
152
153
150
150
149
147
150
150
150
151
148
149
145
149
146
147
148
145
145
146
145
143
145
144
143
144
143
145
145
143
143
145
142
145
145
143
144
144
144
144
143
143
145
143
142
145
142
144
145
144
142
144
143
144
144
144
145
145
146
146
147
147
148
148
148
150
152
155
161
168
176
184
194
201
208
208
207
207
207
209
209
200
195
180
171
162
151
145
140
140
142
142
143
147
148
148
149
150
149
151
151
148
150
151
149
149
152
149
153
151
151
154
154
151
155
153
152
152
152
152
153
154
155
155
154
155
156
157
159
157
157
159
159
158
159
158
160
160
161
161
160
161
164
162
164
165
165
166
163
165
166
167
167
169
168
171
169
171
171
172
172
173
175
175
178
177
178
178
182
180
182
182
182
183
186
183
186
186
185
185
186
187
186
186
185
186
185
183
181
180
178
177
175
172
171
167
165
162
161
159
158
154
154
149
150
148
146
144
143
144
142
140
142
140
139
138
139
139
139
138
136
138
136
136
138
138
138
136
137
136
138
137
136
135
138
138
138
136
138
139
138
140
137
140
138
140
140
140
139
139
141
141
141
141
140
140
140
142
141
141
142
141
143
144
140
143
142
142
143
142
142
144
142
142
143
143
144
143
145
144
142
145
143
143
145
144
144
143
143
144
143
144
145
144
145
143
143
145
144
143
145
143
143
142
144
144
144
144
143
144
144
143
144
145
144
143
143
145
145
144
143
146
143
145
144
143
145
145
144
145
147
146
145
147
145
147
146
149
147
148
147
146
148
147
149
149
149
149
154
152
152
155
155
154
156
156
157
154
156
154
154
153
154
154
153
151
151
152
151
152
150
149
150
148
149
147
147
148
147
146
146
145
145
145
144
145
144
144
145
144
143
144
144
144
145
144
143
143
144
144
145
145
144
142
143
143
143
143
142
143
144
142
145
142
143
144
145
145
144
144
145
145
144
144
147
146
148
148
149
148
146
151
155
158
165
172
180
184
196
203
207
206
207
207
206
207
205
197
187
179
167
158
150
142
143
142
142
146
148
147
149
149
149
149
150
149
148
150
148
149
150
149
150
150
151
152
150
153
151
152
154
152
153
154
153
154
155
155
157
155
156
155
157
155
158
158
158
159
157
159
157
158
162
161
163
161
162
162
162
164
164
165
164
165
165
166
167
166
167
171
167
171
170
172
172
171
174
175
176
178
176
177
179
178
181
182
182
183
185
184
185
184
186
187
184
185
188
186
187
186
186
185
184
182
181
179
179
177
175
173
171
168
166
166
161
158
158
155
153
151
150
147
146
145
145
141
142
140
140
139
141
138
138
137
140
137
138
137
137
138
137
136
137
138
137
137
137
137
138
138
138
139
139
139
138
139
138
138
139
139
139
140
139
139
140
140
142
140
142
140
142
141
141
140
142
141
144
143
142
141
142
142
143
142
142
144
142
144
144
143
142
142
144
143
143
144
144
144
144
145
144
144
143
144
144
145
143
146
143
145
144
145
143
144
145
143
145
145
143
145
144
145
145
145
145
145
145
143
146
144
144
143
145
144
144
145
143
145
145
147
145
146
145
145
145
145
145
146
146
146
147
145
146
147
147
147
148
148
149
148
148
150
149
148
150
148
149
151
149
152
152
151
154
155
154
155
158
156
159
158
156
155
157
157
157
155
155
156
155
155
156
153
155
151
151
153
151
151
153
151
151
150
147
149
150
147
148
149
147
146
146
146
147
146
146
146
146
146
147
146
146
146
145
147
144
146
147
145
147
147
147
145
147
147
145
146
145
145
147
147
147
147
144
147
146
146
147
148
147
149
149
149
151
149
151
154
156
162
167
175
181
190
199
207
207
209
207
207
207
207
207
201
191
179
172
162
152
147
142
145
144
145
147
151
151
151
152
153
153
151
152
152
151
152
154
153
152
155
154
153
154
155
152
155
155
155
156
154
155
156
155
155
156
157
158
160
156
158
159
159
160
160
161
162
161
161
162
163
162
163
166
162
164
165
164
168
166
166
168
167
169
169
170
173
170
174
171
174
174
176
178
176
179
177
179
180
180
181
181
185
185
183
185
185
187
186
185
188
187
187
188
187
188
187
187
185
186
186
184
181
180
179
178
175
172
172
169
166
161
162
159
156
157
153
151
150
146
148
145
142
142
144
141
141
140
140
140
137
139
140
140
137
137
137
137
138
138
137
137
137
137
138
138
139
138
137
139
140
141
140
138
139
139
140
138
141
139
141
140
140
141
142
140
141
142
141
142
142
142
142
142
143
141
143
144
143
143
144
144
143
143
143
145
144
144
146
143
146
144
144
143
144
145
145
145
144
146
146
145
144
144
145
146
145
145
144
145
147
144
144
145
144
142
146
145
148
144
143
145
146
146
145
145
146
145
145
146
145
143
147
147
145
145
144
147
148
147
146
147
147
145
146
147
147
148
148
149
150
147
150
148
150
148
151
151
151
151
152
152
153
156
159
156
157
158
156
156
156
156
154
157
156
155
154
154
154
152
153
154
152
150
152
152
151
151
150
149
149
150
148
150
148
147
147
146
146
146
147
146
146
146
146
145
146
146
145
144
145
147
145
145
144
145
145
144
144
143
147
145
144
145
147
147
145
147
146
145
145
147
148
147
148
145
147
148
149
148
148
148
149
152
152
156
163
170
175
185
195
207
206
208
207
206
205
207
208
202
193
183
172
162
152
142
140
138
140
139
143
145
149
148
148
150
148
151
151
152
150
151
153
152
152
151
154
153
155
154
155
155
154
155
156
154
156
154
155
157
158
155
157
158
156
158
157
160
161
161
160
160
160
161
161
162
163
163
162
163
163
165
167
167
167
167
167
168
169
170
169
171
171
171
174
174
173
174
175
177
178
177
179
181
180
182
180
184
184
184
186
184
184
186
186
185
188
186
186
189
188
188
185
187
185
184
184
183
182
178
178
176
173
169
168
166
164
161
158
159
153
152
150
149
147
147
146
145
144
141
140
139
139
141
139
138
138
139
139
139
137
137
137
138
139
139
140
138
138
138
138
136
138
140
139
139
139
136
140
140
138
140
137
139
140
139
140
140
142
141
140
140
142
141
142
141
142
141
142
141
143
143
144
143
143
142
144
143
144
142
143
144
145
144
145
145
144
144
143
145
144
144
145
145
145
143
143
144
144
146
146
145
143
145
143
144
144
144
143
145
143
143
144
144
145
146
146
143
143
143
145
146
145
146
145
142
144
145
145
144
144
146
144
142
143
144
146
145
146
145
146
147
147
147
146
150
149
148
149
149
147
148
151
151
151
152
151
153
154
154
154
155
156
155
155
156
153
154
155
152
156
154
153
153
152
151
151
149
151
149
149
151
150
147
148
150
149
149
146
146
147
146
145
144
144
146
144
144
143
145
147
144
145
144
145
145
144
146
145
145
145
144
145
144
145
144
144
145
146
146
144
143
145
145
145
144
145
145
146
145
147
147
146
147
148
147
148
150
149
153
156
160
167
173
183
192
200
207
207
208
208
206
209
205
198
191
181
171
161
151
146
142
141
140
143
145
145
147
149
150
147
149
150
150
151
149
152
149
149
152
149
152
153
151
151
152
152
153
156
151
154
153
155
153
153
156
154
155
155
158
155
157
158
155
157
158
160
159
158
160
160
161
160
162
164
163
163
165
165
166
166
167
167
166
168
167
168
171
170
170
172
173
172
174
175
175
177
177
178
180
180
181
182
181
184
184
183
184
185
186
184
187
185
184
187
187
186
187
186
184
184
185
181
179
179
176
173
172
171
167
165
163
160
161
156
155
154
152
149
147
144
144
143
144
141
140
140
140
138
139
138
140
138
138
138
136
137
139
137
138
135
137
137
138
138
137
136
138
138
137
139
138
137
139
138
138
138
139
141
139
140
141
140
139
141
140
141
143
140
140
142
142
140
142
142
142
143
141
143
142
142
143
143
142
143
143
144
145
143
143
143
143
142
142
144
141
143
145
143
143
144
143
144
143
144
143
141
144
144
143
145
143
144
142
143
142
144
144
144
143
144
144
145
145
145
144
143
143
145
145
144
144
144
144
145
145
145
145
145
144
146
146
145
147
146
145
146
147
146
146
148
147
149
149
149
148
147
151
148
150
151
150
150
153
153
154
156
155
154
156
157
155
156
154
155
152
153
153
152
152
152
150
151
150
151
151
150
152
150
149
148
148
150
147
145
145
146
147
146
144
145
145
145
142
142
144
143
144
145
143
144
144
144
144
143
143
145
146
144
144
146
143
143
144
145
146
144
145
145
143
143
145
145
145
146
144
143
145
147
147
148
147
146
148
151
151
154
163
167
176
182
189
199
206
209
207
208
208
207
206
202
192
182
173
162
153
148
142
144
143
145
147
148
148
149
151
150
150
150
150
151
152
151
150
153
150
151
152
151
153
150
152
153
154
152
154
155
153
154
156
157
154
156
158
155
157
157
156
158
157
157
158
159
159
160
160
161
161
161
163
162
163
164
163
166
165
168
165
167
169
168
168
168
170
171
171
173
174
174
175
176
177
178
177
181
181
181
179
182
184
183
184
184
186
188
187
185
187
187
188
187
187
186
186
186
187
183
184
182
182
178
179
176
172
172
167
166
165
162
159
159
154
153
151
150
149
147
145
145
145
141
143
143
140
140
140
139
139
138
139
138
136
138
138
140
137
136
136
139
138
137
138
139
139
139
137
138
139
140
140
139
139
139
138
139
140
139
138
141
141
139
141
142
141
142
142
140
142
142
142
142
144
142
141
142
142
141
143
143
145
144
141
144
145
143
142
142
145
143
143
143
145
143
143
145
145
143
143
145
144
143
143
144
145
145
143
143
146
144
144
143
143
144
145
143
144
143
145
143
144
145
143
145
145
143
144
144
144
146
146
145
144
144
145
144
145
146
147
145
144
145
147
146
148
148
147
148
147
149
147
146
148
149
147
148
149
152
150
153
154
153
155
154
156
156
153
155
155
156
154
156
153
154
154
153
151
152
152
151
151
151
149
149
150
150
148
149
150
148
148
148
146
145
146
146
145
146
146
145
144
145
145
145
146
146
145
144
144
145
146
145
144
144
144
144
145
147
145
144
145
144
146
144
144
146
144
145
147
144
145
145
145
146
149
148
148
148
149
147
149
153
155
161
166
175
183
192
201
208
209
205
209
207
209
208
204
193
185
175
163
155
147
144
140
141
144
145
146
149
146
150
149
148
150
150
150
151
151
151
151
152
152
152
153
153
152
152
152
154
154
155
153
155
156
153
156
156
155
158
155
158
158
157
159
157
160
159
160
159
160
161
161
162
159
161
163
162
165
164
163
165
165
165
167
165
167
170
168
171
172
171
173
175
172
174
175
178
176
177
180
180
179
181
183
183
185
184
184
185
186
185
185
185
189
186
186
188
187
186
186
186
186
185
183
182
179
178
176
173
173
169
166
165
165
161
159
155
153
153
149
148
145
145
145
144
142
141
140
139
138
138
137
137
137
139
135
137
135
137
135
135
136
136
137
137
137
136
137
137
137
138
136
136
137
138
138
137
140
138
137
139
137
139
139
140
141
139
139
140
141
141
139
141
142
140
139
140
140
141
142
142
142
142
144
141
142
143
142
140
143
144
143
142
141
144
142
141
142
141
143
142
143
144
142
143
143
145
143
143
143
144
142
143
144
142
143
143
143
142
144
142
143
143
142
143
143
141
144
143
143
144
142
142
143
143
146
143
146
143
146
144
146
144
146
147
146
147
148
147
148
149
145
148
150
149
150
151
150
153
154
154
156
155
154
155
153
152
154
151
155
153
151
153
151
149
152
