205
204
202
205
201
199
199
194
195
191
190
190
188
184
180
178
175
171
167
166
166
162
160
157
154
153
152
152
151
148
147
146
145
145
141
144
144
143
143
139
138
138
140
137
139
140
142
139
138
138
140
140
141
141
141
139
138
140
140
142
141
140
140
139
138
138
142
142
144
145
144
144
141
142
144
145
144
142
143
143
144
143
143
144
143
145
146
145
144
145
146
144
148
147
146
145
143
146
145
145
146
148
146
145
147
145
147
148
148
146
145
145
142
145
143
145
143
144
146
143
144
145
147
149
146
147
149
146
144
145
143
144
144
143
144
144
143
143
145
145
145
146
145
143
146
143
143
147
145
147
146
146
146
146
147
148
148
147
148
148
144
145
146
146
146
146
148
148
148
148
150
150
152
149
150
151
151
150
149
152
153
152
151
149
150
152
154
153
153
155
152
152
149
148
149
147
148
148
149
145
147
147
144
147
146
144
147
147
143
144
144
145
147
149
146
147
146
144
146
145
145
147
145
143
146
144
145
147
145
146
144
144
147
152
157
163
171
175
177
180
177
176
172
169
163
159
159
154
151
146
141
136
133
128
125
122
119
119
120
119
124
123
126
124
127
131
135
138
143
147
149
149
150
151
154
155
158
155
157
158
157
159
159
162
163
162
164
162
161
162
161
163
166
163
164
165
164
165
169
168
167
168
169
171
168
169
171
174
174
176
177
178
176
176
179
180
180
182
182
184
183
186
187
189
191
189
190
191
192
192
197
197
199
202
203
200
199
201
198
202
203
200
200
201
201
201
198
199
199
196
195
192
189
188
188
186
182
180
178
173
170
168
165
163
164
160
158
154
150
151
152
150
150
152
148
146
145
142
142
142
140
140
141
139
138
138
138
139
139
140
137
137
135
137
138
137
139
137
134
136
135
135
137
136
138
139
140
139
138
139
140
142
142
144
142
144
144
143
141
143
143
145
142
143
142
143
143
142
143
143
145
144
142
143
143
144
143
146
143
144
141
140
140
143
145
148
147
147
146
144
143
145
145
142
144
142
142
141
142
146
144
144
142
143
143
145
144
144
145
145
142
141
141
140
142
143
144
143
144
144
145
145
144
144
143
145
146
146
147
147
147
146
147
147
147
145
144
144
147
148
151
150
152
152
150
151
151
151
150
150
151
150
149
147
148
149
148
148
147
146
146
143
141
144
145
145
146
146
145
145
144
145
145
145
147
145
142
141
143
144
145
144
144
144
143
142
142
144
142
143
145
144
142
140
142
142
140
138
140
146
148
154
161
165
169
172
174
174
172
168
165
161
160
158
156
153
147
139
135
131
129
127
124
120
119
118
120
124
122
128
128
129
129
131
134
139
142
145
146
147
148
149
151
150
153
155
156
157
157
156
158
159
158
162
162
160
160
159
160
162
163
163
164
163
164
162
165
164
168
169
170
171
168
168
170
171
172
173
174
175
174
176
176
177
177
176
179
179
182
182
184
185
185
186
190
190
191
191
192
195
196
197
195
196
195
195
195
197
199
198
198
195
194
191
192
189
188
186
184
181
180
179
177
176
173
169
169
167
165
160
160
157
157
156
154
152
148
148
146
146
145
144
142
140
139
136
137
139
139
139
139
136
136
133
133
136
135
136
134
133
134
135
136
133
136
132
135
135
135
135
135
136
137
137
137
137
135
138
140
141
142
143
141
139
141
139
137
140
141
143
142
142
138
139
141
142
143
142
142
139
141
141
139
141
141
143
143
141
140
139
140
141
142
140
141
142
138
137
140
140
139
138
141
141
142
138
142
142
143
142
142
143
143
141
141
145
144
145
146
144
141
141
141
140
140
140
139
139
140
141
142
144
147
148
147
150
150
148
148
151
151
150
149
149
146
147
146
147
147
148
150
150
146
147
147
147
146
145
144
145
144
143
142
144
142
141
141
141
142
143
142
143
144
144
145
145
142
142
143
141
142
141
140
140
138
140
141
143
143
144
146
143
143
142
142
141
143
144
146
150
155
159
165
172
173
177
177
174
168
162
162
159
157
152
151
147
141
135
132
129
127
126
121
121
121
119
123
125
127
130
128
130
134
135
137
140
145
147
150
150
152
151
152
155
156
159
157
157
158
158
159
161
160
164
162
163
161
161
162
163
165
165
168
166
166
166
167
170
172
172
173
174
171
171
172
172
173
173
174
176
176
177
178
180
180
183
183
182
181
183
183
185
188
191
193
195
195
197
197
198
200
202
202
203
204
199
199
201
202
199
200
197
198
195
192
195
191
188
185
184
183
180
177
176
173
172
171
168
166
164
163
162
160
159
158
154
151
150
149
150
149
149
146
148
146
147
145
146
144
145
143
141
139
136
138
139
139
139
139
140
138
138
140
139
140
142
141
142
140
140
140
140
141
143
143
144
142
143
144
143
144
144
145
147
146
146
147
147
149
149
150
149
147
145
143
142
143
143
145
145
144
145
144
144
146
146
147
146
145
146
147
148
148
149
149
148
148
145
145
149
148
149
150
150
148
150
149
148
149
148
148
148
147
146
145
148
148
147
148
147
144
144
146
146
148
146
149
149
147
145
145
146
148
146
149
148
147
147
147
149
148
149
148
149
149
149
146
151
152
152
151
152
152
152
152
152
152
152
152
153
152
153
152
152
154
155
154
155
151
147
148
147
148
151
149
147
147
146
145
145
145
146
145
145
145
145
148
147
147
148
147
146
144
144
146
145
146
147
145
146
144
145
145
145
146
145
147
148
150
152
156
162
167
173
176
177
178
177
174
170
165
162
159
157
154
151
146
143
139
134
130
127
125
121
123
122
122
128
130
129
131
132
135
138
141
147
148
150
154
153
156
157
158
159
156
161
160
161
162
162
164
163
163
163
162
160
160
162
163
164
164
164
165
166
165
168
169
169
172
170
170
170
172
172
174
174
175
175
173
176
176
176
177
180
180
182
182
180
180
183
185
186
189
189
189
191
191
193
195
195
195
197
199
197
196
194
196
197
199
197
198
197
198
197
197
197
195
192
190
185
184
185
182
180
178
176
172
169
166
164
163
161
158
157
155
151
150
150
149
150
149
147
145
141
141
144
144
144
144
142
141
141
142
143
142
141
143
142
142
141
139
139
139
143
142
142
141
140
142
141
141
141
139
140
139
139
140
141
142
144
142
140
140
141
140
144
145
144
146
144
144
144
143
143
146
147
147
146
145
146
146
146
147
147
148
145
146
146
143
145
147
148
146
145
144
145
143
144
147
148
148
147
144
144
144
146
147
147
145
147
147
146
145
146
146
147
147
148
144
143
144
143
145
146
144
145
144
145
142
144
146
148
146
147
148
146
147
150
149
148
149
146
145
146
145
146
147
148
146
147
147
148
146
148
149
148
149
149
147
149
147
148
148
150
151
151
152
152
151
152
153
153
154
151
151
149
149
151
151
152
148
148
148
145
145
145
148
147
149
150
148
147
145
146
147
146
146
145
143
142
141
142
143
143
142
143
144
144
143
144
143
144
144
147
145
145
145
145
146
145
144
145
143
147
151
158
163
170
176
180
177
176
174
171
166
165
161
158
157
152
147
142
140
137
134
130
128
125
126
127
129
130
133
135
136
137
141
145
146
148
151
153
154
151
153
156
156
157
159
160
161
159
159
160
162
163
164
165
163
161
164
162
162
163
164
164
162
163
161
163
165
166
169
170
170
171
169
172
171
173
173
173
172
170
172
175
176
177
177
179
181
181
180
184
182
184
187
188
187
190
190
191
195
195
196
198
197
196
194
195
197
198
196
198
195
194
191
194
195
194
192
193
191
187
187
182
180
179
176
175
173
169
167
165
163
162
159
156
155
154
152
150
150
150
148
147
146
144
144
144
142
140
140
139
139
139
139
139
138
138
137
140
138
136
137
137
138
138
138
137
138
136
136
137
138
139
140
141
142
140
137
142
141
140
141
139
139
139
140
141
142
143
143
143
141
140
142
142
143
144
143
142
142
142
141
144
143
145
146
148
147
144
144
144
144
145
147
147
146
144
142
142
144
144
146
146
144
142
142
143
144
144
144
142
141
143
143
142
143
143
144
145
144
143
141
143
144
144
146
145
143
143
142
141
145
147
145
144
144
142
144
146
147
147
148
148
147
145
145
146
146
144
143
144
143
139
140
141
141
142
143
144
145
145
145
144
146
148
149
150
149
145
143
144
146
147
148
147
146
147
146
147
148
149
149
149
152
151
149
151
153
153
152
152
150
149
150
151
151
151
152
150
149
148
145
144
145
144
145
145
147
143
143
145
144
147
144
144
143
144
143
143
145
147
150
145
146
145
145
146
146
146
144
144
141
141
141
141
144
144
145
146
146
145
147
150
156
163
171
176
178
178
177
176
173
167
164
161
161
156
154
148
147
143
136
132
126
122
119
119
117
117
119
122
121
120
123
126
131
136
138
142
144
148
149
151
153
155
157
158
157
156
157
159
159
162
167
165
166
165
167
164
164
165
165
163
165
164
162
164
165
168
169
170
169
171
170
172
172
172
172
174
176
174
175
176
177
176
177
179
178
180
181
185
186
190
192
192
195
194
195
194
193
192
195
194
195
195
197
196
197
199
204
205
205
203
204
204
204
206
204
203
200
197
192
189
188
187
183
183
180
176
174
170
170
171
169
167
164
161
159
158
155
154
154
151
150
148
146
144
143
144
142
138
141
141
138
139
141
142
143
143
142
142
139
142
143
146
145
144
141
141
141
143
142
140
141
139
138
138
136
139
139
139
142
142
142
138
137
139
140
138
141
145
141
138
138
141
144
148
148
149
150
148
147
149
149
149
147
146
145
145
146
146
146
148
149
147
147
145
141
144
146
148
150
151
152
150
147
146
143
139
143
147
147
146
148
149
151
153
153
153
150
148
146
144
145
148
149
149
152
152
151
150
154
152
152
147
143
143
141
142
147
147
149
147
149
147
145
144
144
145
142
143
146
145
146
147
149
151
152
150
148
148
148
146
148
152
156
158
152
151
150
148
146
144
145
147
148
151
153
154
157
158
158
159
159
156
155
154
151
149
148
151
152
152
149
146
148
147
144
144
145
146
149
152
152
147
143
139
140
136
135
132
132
132
135
134
136
136
136
137
136
138
137
134
129
127
126
126
128
130
135
138
142
146
152
162
168
171
170
167
168
170
167
162
156
150
148
146
143
139
134
127
123
121
115
114
112
110
109
107
108
107
113
118
124
128
130
135
138
139
144
147
144
143
138
137
138
136
136
137
137
136
134
138
138
140
144
144
143
144
144
146
149
149
146
145
145
145
143
143
142
140
143
147
147
145
146
145
146
149
149
152
154
150
150
151
150
150
154
153
153
152
152
153
157
159
159
165
170
172
174
173
172
176
175
178
176
172
169
165
162
162
164
166
169
172
171
174
177
178
177
174
170
165
164
161
162
159
159
156
151
148
142
140
138
137
136
135
132
131
130
131
134
132
130
127
125
127
126
126
122
119
117
118
120
121
124
121
121
121
122
124
123
119
120
118
120
120
123
124
123
124
121
118
121
120
121
121
119
120
121
126
129
134
134
134
134
131
131
130
130
130
129
127
126
128
128
128
129
131
130
125
126
127
125
128
131
137
143
146
147
143
140
140
136
135
135
135
134
132
133
134
136
140
144
142
141
141
136
136
138
139
137
137
135
132
130
131
131
137
139
142
144
147
146
142
139
136
134
131
131
133
135
136
135
138
140
145
148
150
151
151
152
151
147
148
149
148
146
145
140
139
138
138
142
147
151
151
150
152
152
149
146
144
142
142
144
150
152
153
152
148
141
142
141
138
140
139
139
141
142
142
145
145
144
144
142
139
140
139
138
136
137
140
142
144
145
146
147
149
151
152
149
149
150
152
158
165
170
174
175
172
168
162
156
156
156
155
152
148
144
140
138
135
130
125
124
116
115
117
117
121
125
127
128
131
132
138
144
149
154
154
158
157
157
158
157
158
161
163
164
163
159
159
158
158
159
162
162
159
160
164
164
166
167
168
171
170
169
170
173
171
171
174
174
173
172
173
172
176
176
177
178
178
179
183
185
187
189
190
191
188
186
186
189
189
191
191
192
196
195
196
199
198
201
202
201
204
202
201
203
205
205
205
206
204
204
203
202
200
200
201
197
196
193
191
190
190
188
187
187
183
182
175
174
173
171
167
165
166
163
162
162
158
158
158
157
156
158
156
154
154
154
153
154
154
154
151
154
154
152
151
150
149
145
147
148
148
150
150
152
151
151
153
152
152
150
151
150
150
148
147
148
151
150
151
151
149
148
148
149
151
152
152
151
152
152
152
153
154
155
154
156
152
152
151
149
149
150
152
153
152
150
151
151
152
155
156
154
154
152
151
153
152
154
153
153
156
155
153
154
156
154
154
154
148
149
147
146
149
152
151
150
151
151
151
152
153
155
156
158
159
158
158
160
160
159
159
157
157
157
157
156
157
155
155
156
156
154
155
154
154
155
156
154
154
154
153
152
152
152
149
148
147
147
148
148
147
149
149
149
147
145
145
146
146
147
145
147
147
148
148
150
152
150
150
152
147
149
150
155
159
167
173
175
180
182
181
177
173
171
167
166
163
160
156
153
149
144
141
135
133
130
128
127
128
127
129
130
130
131
133
138
138
142
147
148
150
152
155
155
157
157
158
157
156
159
156
158
158
160
161
161
160
160
159
159
162
164
163
163
165
164
165
166
166
165
164
165
163
164
166
167
168
170
173
174
172
173
174
172
172
174
175
174
176
178
179
177
178
180
182
181
183
184
185
184
189
191
190
189
191
190
188
188
191
190
192
192
192
189
190
190
190
191
188
186
185
183
182
178
177
177
174
173
171
166
163
161
157
155
153
153
154
152
149
149
148
145
146
146
145
144
143
140
142
142
141
141
142
138
139
137
138
140
138
137
138
139
136
138
138
136
137
138
136
134
135
135
135
137
136
136
135
137
136
136
137
137
140
141
142
141
140
141
141
141
140
139
139
139
140
141
144
143
143
143
141
141
141
142
142
140
141
141
143
142
140
141
141
143
145
144
145
142
145
144
144
144
144
143
143
143
143
143
145
147
145
144
147
144
140
141
142
144
141
142
146
147
147
146
148
149
147
149
148
148
147
145
146
147
148
151
151
153
152
152
155
153
153
154
153
154
153
151
152
152
153
155
157
156
156
155
156
154
155
156
154
156
155
154
155
154
153
153
154
152
152
151
153
152
153
153
153
152
153
153
154
155
156
155
155
153
153
154
155
156
156
157
160
161
159
158
159
157
161
163
168
172
177
181
187
192
191
189
188
182
179
177
174
173
169
166
160
158
154
148
146
147
143
143
142
142
142
141
145
148
149
150
149
152
155
157
160
163
168
168
169
170
171
171
174
172
173
176
176
174
177
178
176
177
178
177
176
176
177
178
179
181
181
182
183
181
181
182
182
182
183
184
186
186
186
187
188
189
190
192
190
191
193
193
194
195
194
197
199
199
199
201
201
203
204
206
207
206
206
206
207
206
207
209
206
207
208
207
206
207
206
207
206
208
205
204
205
202
203
201
196
198
194
194
190
190
188
183
183
179
179
175
175
174
173
171
170
169
167
166
167
164
165
166
164
163
162
162
163
162
161
161
162
161
160
159
158
160
159
158
161
159
157
158
157
155
160
158
159
159
159
159
159
157
161
159
161
160
158
160
158
159
160
159
158
158
157
157
157
158
156
160
160
157
158
159
158
160
159
161
158
160
161
159
158
157
158
157
159
157
157
157
158
157
157
157
157
156
156
156
156
155
155
156
154
154
155
155
154
154
155
152
155
154
154
153
155
154
155
157
157
156
156
156
155
157
158
157
158
158
156
159
158
161
160
160
158
157
157
157
156
156
156
159
156
156
157
158
155
156
158
157
156
158
156
156
156
155
156
157
155
152
151
151
150
150
151
151
150
149
149
149
149
149
151
150
148
147
149
148
148
147
149
149
147
148
147
145
146
150
149
151
149
149
148
146
147
148
150
157
164
164
170
171
175
174
174
170
167
163
162
158
156
154
152
146
143
139
135
131
132
132
130
128
127
129
131
129
133
136
136
138
141
142
145
147
148
150
152
152
152
153
152
153
154
156
156
157
155
159
158
158
159
159
158
159
158
159
159
160
160
159
161
162
161
161
161
162
163
163
163
165
167
167
166
164
168
168
171
170
173
171
171
173
171
175
175
176
178
177
179
179
180
181
181
184
184
185
185
186
186
183
186
187
186
188
184
186
184
183
183
184
183
180
181
177
178
176
176
176
171
170
166
167
166
161
161
159
158
155
154
151
150
151
148
147
147
145
145
143
142
142
143
143
142
142
140
139
138
141
140
139
138
138
138
137
137
137
136
139
139
137
138
140
136
137
140
139
139
137
139
137
138
138
139
141
141
141
139
139
140
139
142
141
141
142
142
143
143
141
141
141
141
142
140
139
140
141
141
140
142
144
142
142
139
142
141
143
142
141
142
143
144
143
143
141
142
142
143
143
143
145
143
144
145
143
144
143
142
141
140
143
143
143
140
141
142
140
142
142
141
143
142
141
140
142
142
144
142
142
143
145
146
146
145
145
145
146
144
145
147
147
147
148
148
147
146
145
147
149
149
150
147
149
150
150
150
149
150
150
151
149
149
147
149
147
149
151
148
148
146
144
144
144
143
142
144
141
141
141
142
144
143
141
143
140
142
141
141
141
141
142
142
143
142
144
142
144
144
143
143
143
142
141
141
143
147
151
156
160
166
166
170
169
169
165
162
158
157
155
152
151
148
147
139
136
132
130
130
128
129
130
131
130
130
132
135
138
141
142
142
146
147
147
149
151
151
151
151
151
152
152
153
155
155
154
153
155
156
153
155
156
155
155
156
158
155
156
157
157
159
159
159
161
161
162
160
159
161
163
163
163
164
164
163
164
166
166
165
166
167
169
166
171
171
171
171
173
175
176
176
176
178
181
180
179
181
181
180
183
181
184
182
181
181
180
181
181
180
181
181
177
178
176
175
174
173
174
171
169
167
166
161
161
160
159
156
155
153
151
150
148
148
146
145
145
143
143
143
142
140
142
141
139
140
141
140
138
140
138
140
138
137
138
137
138
139
140
141
141
140
137
139
141
138
140
141
141
140
140
139
139
141
141
141
141
142
140
140
141
143
140
140
140
142
144
142
141
140
141
142
142
145
142
140
142
144
143
146
143
143
143
143
144
147
146
146
143
143
144
144
144
145
143
143
143
144
144
145
145
144
144
142
144
144
141
141
143
142
141
143
143
142
143
142
142
142
144
144
143
143
143
144
146
146
145
145
144
144
145
144
143
142
143
143
143
146
142
143
143
144
145
144
144
145
144
143
144
143
145
145
145
145
145
144
146
146
145
147
146
146
145
145
145
146
147
145
145
146
145
145
146
147
148
147
149
149
147
150
148
150
148
150
150
152
151
151
152
153
154
153
152
152
150
150
152
151
152
151
151
150
150
150
150
150
148
147
147
147
147
148
148
148
147
148
145
147
144
147
147
146
148
148
146
147
145
144
147
146
145
145
147
147
146
146
147
146
146
146
147
146
147
150
156
162
166
171
172
174
173
171
165
163
162
159
160
155
153
149
146
142
138
136
133
131
129
130
132
133
135
134
138
138
139
143
145
145
149
152
153
152
153
154
155
157
155
156
157
158
156
155
157
158
160
159
160
159
160
159
158
161
163
161
162
162
160
161
163
164
164
164
163
165
165
166
165
165
166
166
168
168
168
168
169
169
168
168
171
173
173
175
176
175
175
178
179
181
180
180
180
182
184
184
184
183
185
186
185
185
185
185
186
187
182
184
185
185
185
186
182
181
179
178
179
175
175
171
170
167
168
166
164
162
158
181
176
176
175
172
171
169
166
164
162
160
160
158
159
158
155
151
150
150
149
148
148
146
144
144
144
144
144
145
143
144
142
141
141
143
142
142
140
140
140
139
140
139
140
142
142
140
141
142
140
141
140
141
141
140
141
143
143
142
142
143
143
143
143
142
142
142
143
143
143
143
145
145
143
146
146
146
148
148
147
145
146
146
145
147
145
145
145
145
145
145
147
146
147
146
148
145
144
144
145
145
145
146
147
149
145
147
148
147
147
146
145
145
146
146
148
149
149
148
151
152
148
149
150
150
151
153
151
152
150
152
153
151
154
154
153
152
151
152
152
150
150
150
150
147
146
145
146
148
146
146
145
145
144
144
144
145
146
145
145
145
144
143
145
145
144
145
145
145
145
145
146
148
147
147
146
145
146
146
146
147
150
152
155
159
165
168
170
170
168
165
160
157
153
152
150
149
148
144
139
136
135
132
130
129
128
128
126
128
128
129
131
132
134
136
137
140
140
143
144
146
148
151
153
154
153
154
157
157
156
158
159
159
158
157
159
160
161
162
161
162
162
162
161
162
161
163
162
163
163
161
162
164
164
165
165
164
167
168
168
168
170
170
170
173
173
174
174
176
175
177
179
181
180
180
183
182
183
185
186
188
187
188
190
193
192
192
192
191
190
189
189
186
188
190
188
187
184
184
184
182
181
179
180
176
173
172
170
165
164
163
163
161
159
157
156
154
152
153
151
151
150
148
149
147
147
145
146
144
143
144
143
143
144
145
144
145
144
143
145
145
145
142
143
143
142
143
140
141
140
143
143
142
143
145
143
143
144
144
143
142
145
144
145
144
145
145
147
147
146
146
146
147
148
147
147
147
150
149
150
150
149
147
147
147
148
144
146
148
150
151
151
148
148
149
147
147
148
148
147
148
147
148
146
146
147
146
146
147
147
147
146
148
148
147
146
146
149
148
146
147
145
147
147
145
146
148
150
149
150
151
151
151
148
148
149
150
152
150
152
152
151
150
152
153
153
154
153
150
149
150
150
148
147
147
146
147
145
145
145
146
145
144
144
146
143
145
146
147
145
146
145
146
148
145
144
147
147
146
146
143
143
144
144
145
145
145
145
146
146
146
146
145
144
145
148
151
155
160
164
167
169
169
168
164
159
158
155
154
154
154
150
147
141
138
138
136
135
132
134
132
133
133
135
137
139
142
143
143
144
147
151
152
153
155
155
154
155
156
157
156
156
158
157
158
156
159
159
159
159
157
159
161
161
159
161
161
160
161
162
161
163
162
165
164
162
166
165
164
165
165
166
167
167
168
168
167
170
170
170
171
173
173
174
174
175
175
177
177
177
181
179
181
182
181
182
183
182
186
186
186
184
186
186
186
186
186
186
184
184
183
184
183
181
180
179
177
176
173
171
169
168
167
165
163
161
159
158
158
156
154
152
151
149
149
148
146
147
146
144
144
144
143
144
143
144
143
141
140
141
140
141
142
141
142
144
142
142
142
142
142
142
141
141
142
141
139
139
142
143
143
144
144
142
142
145
146
147
147
144
145
144
146
148
146
145
146
145
144
145
144
146
144
146
146
146
146
145
147
148
147
147
148
147
146
145
147
147
147
148
147
148
147
147
146
145
144
146
145
144
144
144
143
143
144
143
144
145
144
144
143
145
145
146
146
145
144
145
146
147
147
147
148
148
147
148
147
147
145
146
147
147
146
148
148
150
149
149
149
148
150
151
150
151
149
151
152
150
148
149
150
151
151
151
150
152
150
148
150
147
146
148
147
147
148
145
145
146
145
146
147
146
147
147
146
146
148
147
147
146
146
147
146
145
146
148
148
147
147
146
146
147
149
147
147
147
145
146
145
147
149
155
160
167
169
173
173
170
168
166
163
161
159
158
155
152
149
146
140
137
136
134
132
132
132
135
136
137
139
142
142
145
146
147
151
153
154
154
155
153
155
155
156
154
155
155
155
154
155
158
157
159
159
159
160
159
161
160
162
163
163
161
161
162
161
162
162
164
163
163
165
163
165
168
168
169
169
169
169
170
170
171
172
174
174
174
175
175
176
175
177
177
177
178
179
180
182
183
183
184
184
184
186
187
189
189
187
187
187
187
187
189
188
187
186
187
185
183
181
180
179
176
174
174
171
169
168
166
164
163
161
161
159
157
157
154
152
150
150
147
146
143
145
146
143
143
144
143
143
142
142
142
143
143
143
142
142
140
139
140
141
142
142
143
142
141
143
143
142
143
141
142
142
142
144
142
145
144
144
145
143
143
144
144
145
145
144
144
144
145
143
145
144
144
145
145
146
144
146
145
146
145
145
144
144
144
144
146
145
148
147
147
147
148
145
145
146
145
145
147
146
145
146
147
147
147
148
146
146
144
146
145
145
145
145
144
146
144
144
144
144
145
145
145
145
146
147
145
145
147
145
146
146
146
146
146
146
145
146
147
144
146
145
145
145
146
146
147
146
144
144
144
146
148
146
148
148
147
146
146
146
147
148
149
148
149
148
148
148
148
148
148
148
149
147
147
148
147
150
148
151
149
150
150
151
152
152
152
154
153
152
152
153
152
154
155
155
154
153
153
154
153
152
152
151
150
150
149
149
150
152
152
151
150
150
148
148
149
149
151
150
148
148
147
149
148
150
149
148
147
146
146
148
148
149
149
147
149
148
149
147
147
148
149
149
151
155
159
167
169
175
176
178
176
173
169
166
164
161
160
158
155
151
147
141
139
137
137
134
132
132
133
134
135
136
139
141
143
146
148
150
152
155
158
158
159
156
157
160
159
160
159
158
159
159
158
161
161
161
161
161
162
163
163
162
164
163
164
166
162
163
164
166
166
167
166
168
168
166
167
168
168
168
171
172
171
171
172
174
175
174
176
177
177
178
178
179
181
181
184
183
184
185
187
187
187
189
187
189
190
190
188
190
189
190
190
191
190
189
188
189
189
187
187
185
184
184
180
180
179
178
176
176
172
171
168
166
164
164
163
161
158
157
156
152
153
151
149
150
149
149
146
147
147
144
145
145
145
145
145
144
144
142
143
142
143
142
141
141
142
143
141
142
142
142
142
142
142
142
143
143
143
144
144
145
144
146
147
147
146
147
145
146
146
147
147
148
147
146
145
148
146
145
146
146
146
145
145
147
148
149
149
148
150
149
149
150
150
149
148
148
148
148
146
148
149
148
149
149
147
147
148
148
149
149
151
150
150
147
146
146
148
148
148
149
148
148
146
147
148
149
150
149
147
147
147
148
148
150
148
148
147
146
147
148
148
147
147
149
148
148
147
146
147
148
148
146
145
148
148
149
149
149
147
148
145
146
145
146
145
148
149
149
146
147
147
149
149
150
148
147
149
148
149
149
149
148
147
148
149
151
149
149
151
150
149
147
148
147
149
149
151
150
151
153
152
153
152
152
154
156
155
154
156
156
155
153
155
154
154
156
156
153
152
153
151
151
151
150
152
150
149
150
150
148
149
149
150
148
148
147
151
151
150
149
148
148
148
149
149
148
148
150
147
147
148
147
149
149
149
149
148
149
147
146
147
147
149
150
152
157
163
168
173
177
182
180
176
172
167
164
161
161
158
155
151
146
139
137
134
129
127
126
125
126
124
124
128
131
132
135
137
140
141
143
147
148
153
153
155
157
157
157
158
157
159
161
161
161
161
160
162
161
163
163
162
164
162
163
164
165
168
168
166
167
167
167
169
170
168
169
170
170
170
172
171
172
175
175
174
175
176
174
176
177
178
180
180
181
181
182
183
183
185
187
187
187
188
190
190
192
191
193
193
194
191
194
192
195
195
194
196
193
196
193
193
192
190
188
186
184
183
182
179
178
174
172
171
169
167
165
163
161
160
155
157
154
153
152
150
151
150
148
146
144
144
143
143
144
145
144
142
142
140
141
143
143
142
142
141
139
139
138
139
141
141
143
142
142
142
139
140
140
139
139
139
140
139
139
140
141
142
142
143
144
143
142
144
143
145
145
146
144
142
142
145
146
146
145
142
142
143
144
145
144
143
145
146
146
145
145
147
146
148
147
147
145
146
147
145
146
146
147
146
146
143
145
146
147
148
146
146
146
146
147
145
144
146
145
145
144
145
145
147
146
146
147
145
145
145
146
145
146
146
146
145
144
147
144
145
144
145
144
143
144
144
143
146
144
147
147
146
145
145
144
146
146
144
146
144
145
145
146
148
149
149
147
147
146
146
147
149
147
147
147
145
146
145
148
147
149
147
148
147
145
145
146
147
148
148
148
148
150
148
147
147
148
149
149
148
147
150
149
151
148
149
150
149
150
149
150
148
149
152
154
154
152
152
151
154
154
155
155
155
156
154
156
157
155
155
156
158
156
154
153
153
154
153
154
152
151
152
150
149
149
150
150
151
150
149
147
150
150
150
151
150
151
151
150
150
149
148
148
148
148
148
149
150
151
150
150
150
149
148
148
146
147
147
147
150
153
158
163
168
172
176
179
181
180
176
172
168
167
166
163
158
157
153
146
142
139
135
133
130
128
125
124
124
126
128
131
133
133
135
138
140
144
146
148
151
153
153
154
156
156
157
159
162
163
160
162
162
165
163
165
165
166
164
164
166
167
167
166
167
165
167
167
167
167
168
170
169
171
170
170
171
172
170
172
172
173
171
172
173
176
176
179
180
180
180
181
183
183
185
185
188
188
185
188
189
192
192
192
195
194
194
196
197
196
197
195
196
195
193
191
192
192
191
190
189
187
187
185
183
182
181
180
178
175
172
170
170
168
166
163
160
158
155
152
152
151
151
148
148
147
147
145
146
144
143
143
143
140
141
142
143
142
142
140
140
140
140
139
140
141
141
141
140
138
140
138
140
139
141
141
140
142
139
142
142
142
142
143
143
143
141
141
141
143
145
144
145
144
144
143
144
147
145
145
145
144
144
146
145
147
145
146
144
145
145
144
146
144
145
147
145
145
143
143
145
145
145
146
147
145
146
145
145
147
147
147
145
146
146
145
147
148
147
148
146
144
144
143
145
144
145
146
144
146
145
145
146
146
145
147
144
143
144
145
146
145
145
144
145
145
145
144
145
144
145
145
145
146
145
144
145
145
146
147
146
146
147
146
147
148
148
148
146
147
145
146
145
147
146
148
148
148
147
147
146
147
146
145
147
145
145
146
145
148
147
148
148
147
148
149
149
148
148
147
151
147
148
147
147
149
150
149
151
149
151
151
151
153
153
153
153
152
152
154
153
155
154
155
155
155
153
152
154
154
154
154
155
152
151
149
149
148
150
151
149
149
149
147
148
149
150
149
149
148
148
146
146
148
147
147
148
148
148
147
144
146
146
146
146
145
147
147
146
146
146
145
147
147
148
152
158
163
167
170
174
177
179
177
174
170
166
165
161
158
156
154
148
144
141
137
133
129
128
125
126
123
124
126
129
129
131
133
136
141
143
143
145
148
149
152
153
154
155
157
156
158
159
159
158
162
162
163
163
162
162
163
164
164
165
165
165
164
165
166
165
165
167
167
170
168
167
171
171
170
171
171
171
170
173
171
171
173
174
175
175
177
177
178
180
180
182
182
186
187
185
185
187
190
189
189
193
192
190
194
194
194
196
198
195
194
196
196
196
193
195
196
193
190
190
189
187
186
183
183
183
178
176
172
173
170
168
166
164
162
161
158
155
155
154
152
151
152
149
147
147
145
146
146
146
144
144
142
139
139
139
140
140
141
140
139
141
140
139
139
138
141
139
137
138
139
140
140
140
137
137
137
138
139
141
139
139
140
140
140
141
140
140
140
143
143
142
140
141
143
143
143
144
145
143
144
145
146
144
144
142
141
142
143
143
145
144
142
144
143
143
143
144
143
144
145
144
145
144
142
143
142
142
144
143
144
143
143
143
144
143
143
145
145
144
143
143
145
146
147
144
145
144
143
143
144
145
147
147
147
145
145
144
145
145
143
144
144
144
145
143
143
145
143
145
144
145
144
144
144
144
146
146
146
143
145
144
144
144
145
147
147
146
146
148
148
147
148
147
145
144
145
146
147
148
147
147
149
149
149
147
147
149
150
148
147
146
146
147
149
149
148
148
149
150
150
151
151
153
152
152
152
153
154
155
155
156
154
154
156
154
153
153
152
154
154
155
153
154
152
151
150
152
150
150
149
148
149
151
150
151
150
149
149
149
150
149
148
150
150
147
146
148
147
146
147
146
148
149
146
147
146
146
150
147
147
147
148
146
147
154
157
163
167
172
174
176
179
176
173
170
167
164
162
158
156
153
147
145
141
138
134
132
128
126
126
127
129
129
131
131
131
135
136
141
142
143
143
148
150
149
151
154
156
157
159
156
157
157
158
158
160
162
160
162
161
160
162
163
163
164
163
164
163
164
165
162
165
167
168
168
168
169
166
169
169
171
171
171
172
173
174
173
175
176
177
175
175
178
178
177
179
180
182
184
182
185
187
187
189
189
193
192
190
191
191
194
194
194
196
194
192
192
192
192
193
190
191
191
185
185
186
185
181
182
177
176
173
172
169
171
169
166
162
160
159
156
154
155
154
152
150
149
147
146
145
145
145
143
143
144
141
142
141
141
140
141
141
142
140
140
142
143
140
140
142
140
138
138
140
141
140
141
143
141
138
140
142
142
143
142
144
145
143
142
145
144
143
144
143
145
145
146
146
145
144
145
144
144
146
145
144
147
148
145
145
144
146
144
144
145
147
146
145
146
146
146
147
147
149
147
146
146
148
147
149
150
147
146
147
145
147
145
145
146
147
149
147
146
145
145
147
145
148
147
147
146
145
146
146
146
146
147
147
146
145
146
145
144
146
146
146
145
146
145
145
146
146
145
147
147
148
146
147
148
148
149
146
147
145
145
146
148
149
150
150
149
148
147
145
146
147
147
148
147
146
148
149
148
149
149
148
148
149
151
148
149
150
150
148
148
150
148
150
151
152
152
153
152
152
152
153
153
155
156
155
154
155
154
155
156
155
155
155
155
156
154
155
153
155
155
155
155
154
152
151
151
151
150
150
149
150
149
149
149
150
151
149
150
147
146
149
148
149
149
147
147
148
147
147
145
147
147
149
149
148
150
149
146
148
150
154
158
163
169
173
175
179
181
177
174
168
165
163
161
160
158
153
151
147
142
137
134
133
129
128
128
128
127
131
133
134
135
135
137
138
140
143
145
148
150
151
153
153
154
155
156
156
157
158
158
158
158
159
162
162
162
161
160
163
162
163
163
163
161
164
163
165
166
163
166
163
166
165
167
167
166
168
167
169
169
169
170
172
172
173
172
174
174
175
176
177
177
178
179
180
182
184
184
184
184
184
187
188
189
188
190
192
192
192
192
192
194
194
192
190
189
190
191
190
188
187
186
183
180
178
177
175
173
169
168
167
165
162
162
160
159
157
156
153
151
150
149
151
150
149
146
145
145
144
144
143
145
143
144
142
140
142
141
143
142
142
139
140
141
141
141
142
143
143
140
143
142
142
141
143
143
145
144
145
146
143
141
143
144
142
142
144
142
142
143
144
144
145
146
145
145
145
147
147
145
146
146
146
149
148
148
148
148
147
147
147
148
147
146
148
147
150
149
146
149
147
147
148
148
148
147
147
148
147
149
149
149
149
147
147
148
145
146
147
146
145
147
148
147
147
148
147
146
146
145
144
145
145
146
148
146
146
145
146
147
146
148
150
149
148
149
147
148
148
147
147
150
147
147
148
149
149
150
150
148
146
147
147
148
147
149
150
148
149
150
149
149
148
149
149
149
149
149
149
146
148
150
150
151
151
151
149
149
148
150
152
151
152
151
152
152
151
152
151
152
152
152
154
151
152
153
154
153
154
153
152
152
152
153
154
156
156
156
156
156
156
155
155
158
157
154
153
154
154
153
153
153
152
152
153
152
150
151
151
150
150
150
149
149
147
148
149
149
149
149
148
147
147
150
148
149
149
149
148
147
146
149
148
149
149
149
148
148
148
149
152
154
158
165
169
173
175
179
179
174
172
168
165
161
159
158
156
152
148
142
138
135
132
130
129
127
126
128
128
129
131
132
134
136
139
140
142
142
148
150
150
154
156
156
157
157
159
158
159
160
160
159
159
159
161
160
161
162
165
163
163
162
163
166
165
167
167
167
166
165
165
169
169
168
167
169
171
170
170
169
172
172
174
175
173
173
173
176
177
179
178
178
180
179
180
183
184
186
186
187
187
187
189
189
189
191
189
190
191
191
190
192
190
191
191
188
190
187
189
186
185
186
184
183
180
180
177
174
175
171
170
170
166
163
159
161
158
159
156
154
153
151
150
150
150
147
145
144
143
143
141
143
142
141
142
143
143
140
141
141
140
140
142
141
142
140
139
141
140
140
141
141
142
141
141
142
142
141
142
143
142
141
141
144
143
144
143
144
144
144
144
144
145
146
144
146
143
144
145
144
145
144
144
146
144
145
145
147
148
147
147
145
145
146
145
146
147
149
149
147
148
146
147
147
146
146
145
146
148
146
144
145
146
147
146
147
145
145
147
147
147
146
147
146
146
147
146
147
148
147
145
145
146
144
143
145
144
145
147
146
143
144
143
146
145
145
146
145
145
145
146
145
145
146
145
145
146
145
146
147
147
148
147
146
146
144
144
146
147
149
148
147
147
151
148
148
147
150
149
147
145
147
146
147
148
148
149
147
147
146
147
150
150
149
148
150
148
148
148
148
147
149
150
149
150
149
148
149
150
151
152
153
153
152
154
156
155
155
156
155
155
154
152
156
155
153
157
153
152
152
152
150
150
151
152
148
149
150
149
150
151
148
148
150
150
149
147
148
148
149
148
148
148
148
147
149
147
148
147
148
148
149
148
148
148
150
152
149
151
150
149
150
154
158
164
169
171
172
175
176
174
170
167
164
163
161
156
153
150
145
139
139
133
129
128
126
125
126
126
126
128
130
132
132
134
138
141
143
146
146
148
150
153
153
156
156
156
154
154
157
157
157
157
159
157
158
159
161
160
161
160
160
159
162
162
161
163
163
163
164
165
165
165
168
168
167
168
169
168
168
169
168
171
171
171
172
173
173
175
174
176
175
179
179
178
180
179
180
182
185
182
186
186
187
188
183
188
189
189
191
189
192
189
190
190
190
190
189
188
184
185
187
183
182
184
180
177
176
174
173
172
168
170
167
164
164
161
159
157
155
155
154
150
149
147
149
146
145
143
144
141
141
140
143
142
142
142
141
140
142
139
138
140
141
139
140
140
139
138
141
142
142
140
143
142
142
142
141
143
143
142
145
143
143
144
145
143
144
144
144
142
141
141
142
143
142
144
143
144
145
144
146
145
145
147
147
145
147
146
145
146
146
147
148
147
146
146
147
147
146
148
149
148
147
148
149
147
148
149
148
149
150
150
149
148
150
147
146
145
147
146
144
147
144
145
148
146
146
147
145
145
147
147
147
148
147
147
148
149
146
149
150
146
148
148
148
145
148
149
149
146
149
150
150
148
149
150
149
147
151
148
148
148
148
146
147
146
146
147
146
146
148
146
148
148
146
146
148
148
146
147
148
148
149
148
149
150
147
147
150
148
146
145
146
148
149
148
148
147
150
148
150
149
150
152
150
149
149
150
149
147
149
149
149
148
148
150
149
149
151
149
150
149
148
152
153
150
152
152
151
153
152
152
153
154
156
156
156
153
155
153
153
153
156
157
155
155
154
155
154
156
155
154
151
151
151
150
150
148
149
150
149
149
147
146
147
148
148
149
149
150
149
148
147
147
146
149
151
148
147
146
146
147
148
151
150
148
147
148
149
149
150
155
159
165
171
173
177
176
178
175
172
167
166
162
161
158
155
150
146
143
140
135
132
129
126
125
127
127
126
129
130
131
134
137
139
140
143
147
147
150
152
154
153
155
156
155
157
159
159
159
161
159
159
159
159
158
161
163
162
160
162
162
163
164
166
164
162
163
164
162
163
166
165
166
167
168
168
169
169
170
169
170
172
171
172
172
171
171
174
176
176
177
178
176
179
180
182
183
186
185
185
186
188
187
190
191
190
192
191
190
192
190
192
192
191
191
189
190
189
189
188
184
186
183
181
177
179
176
174
172
173
169
169
166
165
164
160
160
157
155
156
155
152
153
150
148
148
148
146
145
144
145
144
142
142
143
142
141
143
141
142
143
141
141
140
139
140
141
139
142
141
142
142
140
142
140
142
142
142
142
143
142
140
143
143
144
143
144
143
144
144
145
145
143
146
145
143
143
143
145
146
146
145
146
145
145
149
146
147
147
145
145
145
144
145
146
146
147
146
143
147
145
145
146
145
146
146
147
145
144
144
145
145
146
147
145
145
146
144
145
146
145
144
147
148
145
145
145
147
147
145
145
143
146
144
147
145
147
147
146
146
147
145
145
145
145
146
144
144
146
146
146
146
147
148
145
144
145
145
147
145
144
147
146
147
147
148
147
146
149
147
147
146
148
144
147
146
146
148
148
148
148
146
147
150
149
149
147
149
150
148
148
148
148
148
147
149
148
148
147
149
149
149
148
148
148
149
149
151
148
151
151
149
150
151
151
151
149
150
150
149
153
149
151
151
150
151
150
151
149
150
150
151
151
151
153
154
153
153
154
154
155
155
156
155
154
154
154
157
154
154
155
156
152
154
152
153
152
153
151
149
150
150
149
149
150
150
148
150
149
148
148
150
150
151
150
149
148
147
147
147
150
148
149
150
148
148
150
148
149
149
149
148
146
148
146
149
153
155
159
165
169
172
175
176
177
174
170
168
164
162
159
158
154
151
147
143
138
134
132
130
130
127
127
125
128
128
128
132
133
139
139
143
144
147
149
151
152
155
156
156
156
158
159
158
162
159
163
162
163
161
165
165
164
166
164
165
163
166
164
165
167
165
166
165
168
167
168
168
168
168
170
169
168
171
170
173
172
174
174
174
175
175
176
176
178
181
180
179
181
182
184
185
187
187
189
188
190
191
190
193
193
194
195
193
194
194
194
192
193
195
194
193
192
192
191
189
191
187
188
186
184
182
182
180
179
176
175
173
171
169
167
165
164
162
161
159
156
154
155
154
154
153
152
150
147
146
145
145
145
145
144
143
144
142
142
141
141
142
141
143
141
140
141
143
142
140
143
143
142
143
142
145
143
144
143
143
144
141
143
145
146
145
144
144
145
144
144
145
145
146
146
146
145
145
144
143
143
144
145
142
143
145
146
145
145
145
147
148
147
146
144
144
145
146
147
146
145
143
144
145
147
147
148
146
145
147
147
148
149
148
149
148
147
147
145
143
145
146
145
144
144
145
146
146
144
146
145
147
145
145
145
146
145
145
146
144
142
144
144
145
142
143
144
144
146
145
147
145
147
149
146
144
145
146
143
147
146
147
146
147
148
148
147
148
148
145
145
143
144
144
145
143
145
146
147
146
145
147
146
146
146
146
147
146
148
145
146
148
148
148
150
147
148
146
147
149
147
147
149
148
148
149
149
148
149
148
147
147
146
147
148
147
148
146
147
148
150
149
150
151
152
152
153
153
155
152
153
154
154
155
153
153
152
156
154
153
153
155
154
153
151
150
149
150
149
148
149
149
150
148
146
150
150
149
147
147
146
146
145
148
148
147
149
148
145
148
146
147
148
150
149
146
147
146
146
146
148
146
148
148
147
150
155
158
164
168
172
174
176
174
171
167
166
163
160
155
153
151
148
143
140
135
131
131
127
125
124
124
127
125
128
128
130
135
136
137
143
144
146
150
150
152
154
154
156
157
156
157
159
158
158
161
161
160
162
162
161
160
162
162
166
163
163
164
164
167
166
166
167
165
167
169
167
165
169
170
169
168
172
173
172
174
174
174
173
174
177
176
177
176
179
179
181
179
183
183
185
187
186
187
188
191
191
190
188
192
190
193
193
193
195
193
193
193
194
193
194
195
193
191
191
188
187
189
186
185
184
183
180
179
176
175
173
171
168
169
166
161
162
161
159
156
157
154
151
150
151
150
149
148
147
146
145
145
144
144
144
146
145
145
143
145
146
142
143
145
144
145
144
143
145
144
142
144
145
144
144
143
142
144
146
144
144
144
144
142
143
145
146
146
145
144
145
147
147
146
146
145
146
146
146
148
144
147
147
147
148
147
147
147
146
148
147
149
149
147
146
146
146
145
147
146
147
147
144
145
147
146
147
147
148
146
146
146
147
147
147
146
146
147
148
146
146
145
146
148
148
149
146
145
148
147
147
149
147
146
147
146
146
146
148
148
148
146
147
147
148
147
147
148
147
146
147
147
145
149
148
147
149
147
146
147
146
145
148
146
148
147
145
147
148
146
147
147
147
147
146
147
147
146
146
147
147
149
147
150
146
148
149
148
149
146
147
147
147
148
148
148
151
149
150
147
151
151
149
150
149
149
149
146
148
150
152
151
154
153
151
152
153
153
154
154
154
155
155
155
154
154
156
155
154
154
155
153
154
155
155
152
152
152
150
149
149
148
149
150
149
149
147
147
147
147
147
149
150
148
148
148
147
147
148
150
148
148
148
147
145
146
145
148
148
147
148
148
148
150
148
149
154
158
163
168
172
173
175
176
172
169
165
159
156
156
153
150
147
146
141
135
132
131
128
126
126
125
124
125
127
129
131
132
133
135
140
143
144
149
149
150
152
153
155
154
156
155
158
157
157
160
160
159
161
160
161
161
162
163
163
163
164
165
164
166
164
164
165
165
165
166
168
168
170
170
169
169
171
172
170
174
171
174
176
174
174
178
179
177
180
180
180
181
183
183
185
185
187
185
188
188
189
191
190
192
192
192
192
193
194
195
192
195
194
194
193
192
192
191
190
191
187
188
186
185
181
182
181
178
175
176
172
167
168
164
164
162
160
157
157
154
153
150
152
149
149
148
147
146
145
146
144
144
142
143
143
140
143
140
143
141
143
140
140
140
140
141
142
141
141
142
142
143
142
142
141
142
140
141
141
141
141
142
140
144
142
143
143
141
143
142
145
144
147
146
143
144
141
143
144
144
144
145
146
144
144
146
145
146
147
144
144
144
145
144
146
146
146
146
147
145
144
147
146
145
146
148
147
145
146
145
147
146
144
147
146
146
145
147
145
147
146
144
145
146
144
146
144
145
145
146
145
144
145
145
147
145
147
148
145
146
145
146
146
147
144
145
146
146
144
144
146
144
143
145
148
145
146
147
146
148
147
147
147
144
147
145
145
146
147
145
145
146
146
145
148
148
147
148
149
149
147
150
149
151
149
148
149
146
146
147
147
148
148
148
151
149
148
151
150
152
154
153
154
153
153
153
154
157
155
156
154
153
153
153
154
151
153
152
152
149
149
149
148
147
150
148
147
149
148
148
147
146
147
145
146
148
146
146
148
147
147
147
148
147
146
146
148
146
148
147
149
151
147
148
150
148
150
154
154
159
166
170
175
177
180
179
176
170
167
164
160
159
155
153
149
145
140
136
134
132
128
127
128
125
125
127
127
130
132
134
137
139
141
143
148
149
150
155
155
155
158
159
158
161
158
162
161
161
162
163
162
163
164
163
165
163
164
164
164
165
166
167
167
167
165
168
169
170
169
170
170
171
170
171
173
171
175
174
176
174
177
176
177
179
182
181
183
182
183
182
184
185
187
187
187
187
190
190
193
192
194
195
195
195
194
195
195
195
197
196
197
197
196
194
194
195
192
191
188
188
184
186
183
181
180
178
175
174
171
169
168
166
164
162
162
161
157
156
153
155
153
151
149
150
147
147
146
144
148
145
145
142
141
142
141
144
144
143
143
143
141
144
141
143
143
143
143
141
143
143
143
144
144
144
144
141
144
142
144
145
144
145
145
145
146
145
147
147
147
148
147
148
147
146
147
146
150
146
148
144
145
147
147
146
146
148
144
148
147
148
148
147
149
149
147
148
147
146
146
147
148
147
148
147
145
146
146
145
146
148
150
146
145
148
146
147
148
148
146
144
147
145
145
147
146
146
148
145
145
145
147
147
147
147
147
147
145
144
146
147
147
147
147
146
147
147
146
148
147
147
147
149
146
147
147
146
146
147
146
147
145
144
147
147
147
148
147
146
146
148
148
148
148
150
149
147
147
149
148
148
147
148
149
147
150
149
148
152
150
151
150
153
153
151
154
155
155
155
156
154
153
155
153
152
154
155
151
151
149
150
150
150
152
148
147
147
148
148
148
149
148
147
150
148
148
148
149
149
148
148
147
146
149
145
148
145
149
147
146
148
145
147
146
146
147
146
149
148
151
158
162
168
174
173
178
176
175
172
169
167
162
161
158
153
151
146
141
140
134
134
131
129
129
128
125
129
129
131
130
133
135
134
140
139
142
145
148
149
151
153
153
156
156
159
156
157
158
158
160
160
159
162
161
162
161
162
163
163
166
163
166
164
165
165
165
165
167
166
167
166
169
166
168
169
172
170
169
170
172
172
173
175
174
178
177
177
177
179
180
181
183
183
183
186
185
186
186
187
190
190
191
191
191
194
191
194
194
193
193
196
192
195
193
194
193
191
192
189
188
186
183
184
181
180
177
174
174
170
171
168
166
166
162
161
158
157
157
155
154
152
151
148
150
146
148
149
146
147
145
143
145
142
144
143
144
141
145
141
142
140
142
143
142
142
144
144
144
141
142
143
144
144
142
140
143
141
143
142
144
143
145
143
141
144
143
144
143
144
145
145
148
146
144
146
145
145
143
146
143
145
143
144
145
144
145
146
145
144
145
146
145
146
146
145
144
142
145
146
145
147
146
146
145
146
145
148
148
148
148
146
146
146
147
147
147
146
148
145
145
144
149
145
146
144
145
146
145
146
146
145
146
146
145
145
145
144
145
147
148
147
147
148
146
147
147
146
148
147
148
148
148
147
147
150
151
151
150
150
146
147
147
144
148
148
148
147
147
149
151
150
153
152
152
154
152
153
151
152
153
153
154
152
154
151
152
152
151
153
151
152
149
151
148
150
149
150
148
148
146
148
147
147
147
148
148
148
146
147
149
147
148
147
146
147
148
146
146
146
146
147
145
148
147
144
146
145
145
144
147
147
151
155
160
166
171
174
175
174
172
168
164
162
159
157
154
155
147
145
141
137
135
132
130
128
127
126
126
128
128
128
132
134
135
135
139
140
141
145
149
148
151
151
153
154
157
157
158
157
156
158
157
158
159
162
160
161
162
161
160
164
162
162
163
161
162
164
163
166
166
167
167
166
166
167
165
166
167
169
168
171
168
171
172
172
173
175
176
176
177
175
179
178
181
181
182
182
183
184
185
187
188
188
190
190
192
191
194
192
192
192
193
191
193
190
193
189
189
190
188
186
184
183
182
179
179
179
175
173
170
169
168
164
163
161
160
158
156
154
153
153
151
151
148
149
146
146
144
146
147
144
144
144
145
144
143
144
144
143
141
143
140
141
141
140
141
141
143
142
140
139
142
141
142
141
142
143
142
142
142
144
145
145
144
145
142
143
143
143
143
143
144
143
145
145
145
145
144
145
145
144
146
146
146
145
146
145
144
144
143
143
144
144
145
144
145
145
144
144
145
144
143
145
145
144
146
143
145
146
146
146
146
145
145
143
144
145
144
144
145
144
146
145
142
146
145
147
145
144
146
144
147
145
146
148
145
144
147
143
144
145
145
145
145
145
146
144
146
146
146
147
145
147
145
147
144
148
145
149
145
148
146
146
147
149
149
149
151
150
150
147
149
150
149
151
151
151
153
152
152
151
153
152
152
152
150
148
151
149
148
148
146
146
145
145
143
147
145
146
148
146
145
146
145
146
145
146
146
145
145
145
142
145
144
143
143
145
144
145
146
147
146
148
147
148
147
144
145
146
146
149
155
156
162
166
171
174
175
172
171
168
163
160
157
156
155
152
148
144
139
134
132
128
127
126
126
126
126
128
130
132
134
135
139
140
141
143
145
149
151
152
155
155
154
156
156
156
158
156
159
157
158
157
156
159
160
161
159
161
160
161
161
162
162
163
163
164
163
163
164
164
167
166
167
168
166
167
169
170
170
170
173
171
172
172
175
174
176
176
177
179
177
178
181
180
183
180
183
182
184
184
185
185
189
188
190
189
191
187
188
189
191
189
190
189
189
186
186
185
183
183
183
180
180
177
175
175
173
170
167
165
163
163
163
160
158
158
155
153
151
149
150
148
148
147
145
146
144
141
142
140
141
141
142
139
140
139
139
139
140
138
140
139
140
139
139
140
138
139
140
140
142
139
141
141
143
143
142
143
142
145
142
145
144
143
145
143
144
143
142
143
143
145
142
144
144
143
142
144
144
144
145
146
143
146
143
147
144
146
147
145
145
147
144
145
148
146
145
148
146
145
146
146
146
146
146
145
145
145
145
145
146
147
145
146
147
144
145
146
145
146
145
144
142
144
142
143
144
143
144
143
143
144
143
144
145
143
145
142
144
145
143
145
147
144
145
146
143
146
146
143
146
146
144
146
143
146
144
146
147
146
147
146
145
147
146
144
145
146
143
147
144
144
146
146
145
147
147
147
148
146
147
148
148
148
149
148
146
149
147
149
150
148
151
151
150
150
150
150
151
150
152
152
153
151
152
153
152
153
153
152
152
152
151
154
153
150
151
151
149
146
148
149
148
147
149
149
146
147
148
148
148
146
149
147
148
148
147
148
145
145
147
146
146
145
147
144
146
147
146
149
147
145
146
146
147
147
150
154
155
161
164
169
173
174
175
170
167
165
162
157
157
156
153
152
146
142
137
133
130
129
128
126
124
126
126
126
130
130
133
137
138
140
142
148
149
149
153
154
153
153
155
154
157
158
157
159
157
157
159
157
159
159
162
159
162
161
161
164
162
163
166
164
165
164
165
164
168
166
168
166
168
166
167
168
169
171
168
170
170
173
173
175
174
176
177
175
178
178
178
180
181
183
184
185
185
183
185
185
189
186
190
190
190
191
192
191
193
190
192
192
192
190
190
190
189
187
188
187
185
183
179
177
178
175
172
172
169
166
164
164
160
160
159
156
156
152
154
150
153
150
151
148
148
144
146
143
144
143
144
144
143
144
141
141
140
141
142
140
140
138
141
140
140
138
140
140
138
140
137
142
140
143
139
142
141
141
141
142
142
144
145
145
143
144
144
146
144
146
147
146
147
145
146
144
145
147
147
147
146
144
145
144
145
144
146
145
146
145
144
147
144
146
146
147
146
143
145
145
146
147
145
145
147
145
145
148
147
149
145
145
147
145
143
147
146
147
148
147
148
146
148
147
145
146
146
145
145
143
143
143
142
146
144
146
143
146
144
145
145
144
146
144
145
144
143
145
146
145
148
146
147
145
144
145
146
146
146
143
145
148
145
148
147
146
147
145
145
147
146
145
147
147
147
148
148
146
148
147
148
147
147
147
148
149
148
148
150
149
149
149
151
150
150
150
151
151
151
150
149
147
147
147
149
147
150
149
150
151
150
152
153
152
153
155
153
154
153
154
155
156
156
155
155
154
154
153
154
151
152
153
152
151
151
149
148
152
150
152
148
149
149
148
149
151
150
148
148
146
145
147
147
147
147
150
146
146
146
147
147
148
149
150
148
148
149
147
149
147
146
147
147
148
151
158
163
168
171
175
175
176
172
170
166
163
161
160
154
155
149
145
141
137
133
131
129
125
127
124
127
127
127
130
133
132
136
138
141
144
145
150
150
151
151
154
155
156
159
157
159
156
159
158
159
160
161
162
163
162
162
163
162
164
163
163
162
165
162
166
163
165
167
164
167
166
167
169
168
168
169
170
170
172
171
173
172
173
173
175
176
178
176
178
180
179
181
182
184
184
185
187
186
187
187
186
190
189
190
191
194
192
194
193
194
193
193
190
192
190
190
191
189
188
185
185
183
181
179
180
177
176
174
171
171
168
168
164
163
163
160
158
159
158
156
155
152
151
149
147
146
147
145
146
144
145
143
143
143
143
143
142
141
141
142
139
142
140
141
140
141
142
139
140
142
143
141
143
143
141
143
143
142
145
144
145
147
144
144
145
145
144
145
145
147
145
145
145
145
145
144
146
144
144
144
145
145
146
145
146
145
145
146
143
146
144
147
146
147
144
147
145
148
146
150
147
147
146
146
147
146
147
147
146
145
145
144
143
146
145
145
145
144
145
146
143
145
146
146
147
147
147
146
144
147
145
146
144
146
146
145
146
146
147
147
144
145
147
145
144
147
146
145
148
146
147
147
145
146
146
147
146
146
145
145
145
147
147
146
147
146
145
145
145
145
146
146
145
146
144
146
147
145
146
147
147
147
146
146
147
148
148
148
150
148
149
149
148
149
148
146
149
150
148
150
150
151
151
151
151
150
151
152
150
152
153
155
153
154
155
154
153
154
152
155
153
154
153
151
152
151
152
152
152
151
147
149
150
148
148
148
148
150
147
150
148
149
149
150
150
149
149
148
149
150
149
150
147
149
149
146
147
147
149
148
149
149
150
148
147
149
150
151
152
155
161
163
168
172
178
177
179
178
172
168
165
162
161
159
156
153
149
144
140
137
134
129
128
126
128
127
127
129
132
133
136
136
138
140
144
144
149
149
152
155
156
157
159
158
160
158
160
159
160
160
159
163
164
165
164
164
164
165
163
166
164
167
166
165
166
166
166
166
168
169
169
169
171
168
170
170
173
171
172
173
174
175
176
177
179
177
180
180
179
181
181
182
182
185
185
186
187
189
190
190
191
191
193
193
193
194
193
197
194
197
196
197
194
196
195
195
195
192
194
192
190
188
185
183
181
182
178
175
173
170
169
168
166
164
162
158
158
156
156
154
152
153
153
150
150
149
147
147
147
145
145
144
146
142
143
143
142
143
143
142
141
140
140
139
142
140
139
142
140
142
140
141
142
141
140
142
140
142
142
144
143
144
144
143
144
143
141
144
146
146
147
146
145
147
144
147
145
145
147
147
147
147
145
147
146
146
145
145
144
146
145
148
147
147
145
148
145
149
147
147
146
148
148
146
148
146
148
146
148
145
148
146
147
145
149
146
147
146
147
146
148
147
147
147
146
148
146
147
146
146
144
146
145
147
146
148
148
145
145
147
146
146
146
146
147
147
146
147
145
147
147
147
146
145
145
146
147
147
147
147
147
147
147
147
146
148
147
150
146
147
145
147
147
146
147
147
148
147
146
148
145
146
147
147
147
146
144
147
146
147
147
149
146
145
148
147
148
147
147
147
146
146
145
147
147
147
148
149
147
151
149
149
152
151
150
151
151
151
150
151
152
151
153
151
153
152
152
151
155
153
154
152
153
149
150
148
148
147
147
145
148
144
146
146
147
149
146
149
145
148
146
145
146
146
145
147
146
145
146
147
146
147
147
148
145
146
148
147
148
146
146
146
147
149
150
151
157
162
168
169
175
178
177
175
171
166
167
159
159
154
152
149
146
141
136
134
130
127
124
125
122
126
124
127
128
131
131
133
138
139
144
145
146
151
150
151
153
156
156
159
158
159
159
162
160
160
160
160
160
159
159
162
163
162
163
162
164
163
164
162
166
165
167
165
166
166
168
166
169
168
169
169
169
170
172
169
174
172
173
174
176
176
179
177
181
182
184
183
185
183
186
185
186
187
187
188
189
189
189
193
192
192
196
193
195
195
193
194
194
193
195
191
194
190
189
190
188
186
184
182
182
179
177
173
173
172
168
168
166
164
164
160
160
158
155
156
153
153
152
148
149
148
147
147
146
144
144
142
143
143
143
143
140
143
140
143
142
141
141
143
140
140
142
140
141
140
141
141
141
140
141
138
141
141
140
143
140
141
142
140
143
143
145
142
145
143
146
144
145
145
145
145
145
144
145
146
145
146
146
145
145
146
144
145
146
145
147
146
147
146
144
147
145
148
147
149
147
147
146
147
146
149
148
147
146
145
147
146
146
147
147
147
147
147
147
145
147
147
148
146
147
145
148
146
146
148
147
148
146
147
147
147
145
147
146
147
147
148
146
147
147
149
147
148
146
148
144
147
145
147
148
145
147
145
145
145
147
145
148
147
147
148
145
149
147
148
149
148
149
147
147
146
146
147
146
148
149
147
148
147
150
149
148
148
148
148
148
149
148
151
149
150
151
149
151
150
152
150
151
149
151
151
150
151
151
151
149
149
151
150
150
151
149
151
153
154
152
155
152
153
154
155
154
155
156
155
155
154
154
154
155
154
155
155
153
154
152
154
153
153
151
151
152
150
151
151
149
149
149
149
149
149
150
148
151
148
148
148
150
146
150
149
150
150
148
148
147
148
149
149
147
150
150
150
149
147
151
150
153
158
162
168
172
175
178
179
180
175
171
168
165
163
158
157
153
149
144
140
135
134
129
128
127
126
126
126
127
129
129
134
134
138
138
142
143
145
148
151
153
153
154
157
155
158
158
160
159
159
161
160
162
161
164
163
165
162
163
163
164
163
163
166
165
166
163
165
164
167
166
169
167
170
167
171
167
171
169
172
172
173
174
174
173
175
175
177
178
180
179
181
181
184
184
185
186
188
188
189
190
189
191
191
192
193
195
194
195
195
194
195
195
196
193
193
193
191
190
191
188
188
186
185
183
182
178
182
177
174
174
171
170
168
167
165
162
158
160
154
153
154
149
152
149
147
148
147
146
145
144
143
143
145
141
144
140
142
141
143
140
142
142
141
140
140
140
141
139
141
140
139
138
139
139
141
143
140
143
141
142
141
144
142
144
143
144
140
143
141
142
143
144
146
145
143
145
142
145
144
144
146
144
143
144
145
143
147
146
146
145
146
143
146
144
145
145
148
146
145
144
142
145
145
146
146
143
145
143
145
146
144
145
145
144
145
144
146
147
144
147
145
146
144
144
143
146
144
144
145
144
145
145
145
146
145
146
146
145
146
144
145
144
147
144
147
145
147
145
147
144
146
146
146
147
145
145
143
147
146
146
148
144
149
144
144
145
147
146
148
145
148
145
145
143
147
146
146
146
147
144
146
146
146
147
149
148
147
148
147
149
150
150
152
149
148
150
147
149
147
150
151
152
150
149
152
149
151
150
149
152
151
152
151
154
152
152
154
152
155
151
154
153
154
152
152
151
151
148
150
148
148
151
146
147
147
148
149
148
148
148
148
149
147
149
148
148
145
146
144
146
144
145
144
144
147
146
147
144
146
143
145
145
148
145
144
144
147
144
146
150
154
162
165
169
173
174
175
174
170
167
165
159
158
154
154
149
147
140
139
133
131
129
124
125
123
125
124
125
126
131
130
133
134
139
140
144
146
146
148
150
152
155
154
156
154
155
157
157
158
159
159
159
162
159
161
159
162
162
162
161
163
163
165
163
165
164
168
166
167
167
166
168
168
170
170
171
170
172
170
173
173
174
176
177
179
175
179
177
179
180
182
180
181
181
184
184
188
187
189
192
192
189
191
192
193
194
195
196
194
194
193
196
197
195
197
194
192
192
191
189
188
187
188
183
183
180
178
177
173
171
169
168
165
164
161
159
156
157
156
154
151
151
151
148
149
146
148
145
145
146
143
144
141
143
140
142
142
140
141
139
140
140
139
141
139
139
139
140
139
140
140
139
140
138
140
139
142
139
141
142
141
142
141
140
144
142
143
141
144
143
142
143
143
144
143
146
145
144
143
145
142
144
146
146
146
146
146
145
146
145
147
147
146
145
144
145
144
145
144
146
143
144
146
143
145
144
146
144
146
144
144
146
145
147
146
145
145
144
145
145
146
146
148
146
146
144
146
145
145
146
146
146
145
145
144
146
144
146
144
147
143
145
143
145
144
147
146
146
145
144
145
144
143
146
145
144
144
145
144
145
146
147
145
146
147
147
146
147
147
147
148
147
148
148
147
146
149
146
148
147
146
148
147
146
147
148
147
149
147
150
147
148
148
150
148
150
148
148
148
148
148
149
147
150
151
150
151
152
152
152
152
152
153
153
153
154
155
155
155
156
155
153
156
154
156
153
155
155
152
153
149
150
150
150
148
147
147
148
147
149
146
150
148
149
147
147
145
147
146
146
147
148
145
146
145
145
147
148
149
146
147
147
146
148
147
148
147
146
148
149
153
158
164
170
175
176
178
179
175
172
169
165
161
159
153
153
148
144
139
135
133
132
128
125
125
125
124
126
128
129
133
132
133
137
139
142
145
148
149
153
152
154
156
157
158
157
158
157
160
159
161
163
161
163
163
164
163
164
166
165
167
166
167
165
165
165
166
167
167
169
167
166
168
166
168
168
169
170
172
172
174
173
174
175
176
177
176
178
179
178
180
181
181
184
184
186
186
188
190
190
192
192
193
192
194
193
194
195
197
195
195
195
194
194
192
194
194
193
195
190
189
188
183
183
182
181
176
177
174
173
171
169
168
163
163
160
158
157
157
153
153
151
150
149
148
148
146
147
144
146
141
143
141
140
140
141
140
139
139
138
138
137
139
139
139
138
139
138
139
140
138
141
139
141
141
138
140
139
141
141
142
140
142
142
142
142
143
143
144
144
145
143
142
143
145
144
143
145
144
145
145
145
145
145
145
146
144
147
145
147
145
147
146
145
148
145
146
146
146
145
145
147
146
146
145
145
145
146
145
146
147
147
145
146
144
147
146
147
145
145
145
144
147
146
149
145
149
146
146
146
146
147
146
146
146
146
145
147
145
147
147
145
147
145
147
145
148
146
146
147
147
146
145
145
146
147
147
148
146
145
146
145
147
147
148
147
146
146
146
147
149
147
148
149
146
145
146
147
148
147
149
147
149
147
149
147
147
150
149
151
149
150
147
150
148
151
150
149
148
150
149
151
152
152
152
152
152
152
153
151
154
154
155
155
156
156
153
154
154
155
156
154
156
153
154
152
153
150
153
151
150
148
148
148
148
148
149
149
148
148
148
147
150
147
149
148
148
147
146
145
147
145
148
145
148
147
146
148
149
148
148
149
148
148
146
148
146
150
148
155
157
164
168
174
176
179
181
176
172
169
167
163
161
160
157
152
149
142
139
135
133
132
130
128
127
128
126
129
130
132
133
137
136
140
140
146
145
149
149
152
152
153
153
155
158
156
158
159
159
158
159
159
163
161
163
161
163
162
162
161
163
162
166
164
164
165
163
165
164
166
166
167
167
170
168
170
169
169
171
170
174
174
174
173
176
175
177
177
177
178
181
180
183
183
185
186
183
187
186
188
189
191
193
192
193
193
195
194
195
196
195
195
196
193
194
192
191
190
187
188
187
185
182
179
179
176
177
173
173
169
169
165
166
163
162
160
157
154
154
152
151
151
149
150
149
148
145
145
144
146
144
144
142
142
140
140
141
141
143
140
142
138
140
138
141
141
142
141
142
142
141
141
140
143
142
142
141
141
142
139
141
142
144
143
142
144
142
143
143
145
146
146
145
146
144
144
145
145
146
145
147
146
144
147
145
149
146
148
148
147
146
147
146
147
147
146
147
144
147
146
147
146
146
147
146
147
145
145
145
148
147
148
150
146
146
145
148
145
147
147
146
146
147
144
146
147
145
148
147
146
146
146
145
149
148
147
148
148
146
145
148
148
146
149
146
146
147
144
146
145
146
146
147
145
146
145
147
147
148
147
146
148
147
148
145
149
148
148
148
148
147
145
147
148
148
148
147
148
146
147
145
146
148
149
149
150
148
150
147
150
149
151
151
150
149
150
151
150
151
150
151
151
151
149
149
150
151
152
152
151
153
153
152
154
153
152
153
152
154
152
155
155
157
155
156
153
154
155
152
155
155
155
154
154
153
151
152
151
152
152
152
151
149
150
151
151
149
151
149
149
150
147
150
148
150
147
151
148
149
147
149
149
150
147
148
147
147
147
148
150
151
149
150
148
149
148
152
158
164
168
172
175
178
177
179
174
174
169
166
161
162
156
153
151
146
140
138
134
133
128
129
127
128
128
129
130
133
133
137
137
143
142
146
147
150
151
152
154
154
155
157
157
158
158
159
160
159
161
162
161
163
161
164
163
164
166
164
164
165
162
165
164
166
165
165
167
165
166
166
169
168
170
168
171
170
170
169
172
173
172
174
176
175
178
177
181
179
180
182
183
183
185
183
185
187
188
189
189
190
191
191
192
192
193
195
193
194
192
196
195
196
195
193
194
191
190
187
187
187
184
186
180
179
177
174
173
170
170
166
163
161
163
158
159
157
154
154
152
152
149
149
149
147
144
146
144
144
142
143
143
143
142
143
141
140
140
141
140
142
140
141
139
140
140
137
139
140
140
140
140
142
139
140
141
139
141
140
142
139
140
142
141
144
143
143
144
143
143
143
143
145
142
143
144
143
142
143
145
147
144
146
145
145
143
145
145
144
146
146
145
146
145
145
145
145
145
146
145
146
145
148
145
146
145
147
146
145
144
146
144
145
144
145
145
144
145
145
147
146
145
145
146
144
145
145
144
146
145
146
144
146
146
144
145
145
147
145
148
146
146
146
147
145
146
145
145
147
143
146
146
145
148
147
148
147
148
146
147
148
149
147
149
148
148
147
147
150
148
148
148
148
148
146
148
147
150
148
149
147
148
146
148
148
151
149
151
149
151
150
152
149
150
148
149
148
150
148
150
148
148
150
150
150
151
148
152
150
152
149
151
150
150
149
151
151
153
151
151
151
149
151
152
152
153
153
153
154
151
151
154
153
152
152
154
153
153
154
155
152
156
155
156
155
157
155
156
156
158
157
155
155
153
154
155
156
154
155
153
154
151
152
151
153
151
151
150
150
152
148
152
149
151
150
151
149
151
147
149
148
149
152
150
148
149
148
148
147
150
148
150
148
149
147
148
147
148
149
150
153
156
163
167
171
175
177
177
175
173
169
166
165
163
159
159
154
150
146
140
137
134
131
128
126
125
126
128
128
129
132
132
137
137
141
142
145
147
150
152
153
155
154
155
157
157
158
158
159
161
160
162
161
163
161
161
162
160
161
161
165
162
165
164
167
164
166
166
167
166
166
169
167
169
169
169
170
172
172
173
172
172
174
174
174
176
177
179
179
177
180
182
180
184
185
184
186
184
184
188
190
189
190
192
191
193
194
195
194
197
197
194
197
193
194
193
194
192
193
190
191
187
186
187
186
183
184
181
179
177
176
172
171
168
168
165
163
159
159
158
157
154
154
151
152
150
147
150
149
150
147
146
147
144
143
143
143
143
143
142
145
141
142
143
141
142
144
142
143
141
142
143
143
142
143
143
142
142
140
143
142
145
143
145
144
142
141
143
144
145
144
147
142
144
146
146
146
146
145
144
145
146
144
146
146
147
148
145
147
146
146
146
146
146
147
148
150
146
148
147
147
147
149
146
147
147
147
147
144
147
145
147
147
144
147
147
149
149
147
148
147
149
147
147
147
147
145
147
147
148
146
148
148
148
148
148
146
146
146
144
145
145
146
144
144
146
145
147
145
146
148
146
147
145
146
147
146
148
146
148
146
147
146
147
145
148
149
148
148
145
147
146
150
148
148
149
149
146
147
149
148
150
148
150
147
148
147
145
149
146
146
146
149
148
148
148
147
148
148
147
149
146
148
146
147
146
149
148
147
148
147
150
148
149
149
149
147
147
150
147
149
149
151
150
149
150
150
149
149
150
149
150
150
152
150
150
153
152
152
154
153
153
153
153
153
156
156
156
155
155
152
155
155
158
156
157
157
155
156
153
155
153
154
153
152
152
151
151
153
151
150
150
150
147
148
147
150
149
148
151
148
147
147
147
147
148
148
147
147
148
147
147
149
147
147
149
149
149
149
149
148
151
152
156
160
165
171
175
176
178
176
177
169
168
163
164
160
160
154
152
146
142
138
137
131
131
126
126
124
127
127
128
132
133
135
137
140
141
144
147
148
150
151
153
154
155
155
158
159
159
159
161
159
161
161
160
162
160
161
163
161
163
161
163
163
162
164
164
165
164
163
165
166
168
165
168
167
166
167
170
171
170
171
170
172
172
173
174
175
177
176
177
180
177
181
180
183
184
183
185
186
187
185
188
188
189
190
193
191
192
192
193
195
193
194
193
195
192
192
193
192
192
190
190
188
187
184
184
180
180
179
177
174
170
171
168
167
164
161
160
156
157
155
153
154
151
152
150
148
148
146
147
144
143
143
143
141
142
142
142
143
143
140
141
141
140
141
140
143
139
138
141
139
140
140
142
141
142
143
143
141
142
142
140
141
143
142
142
141
142
142
143
141
144
144
144
145
143
142
144
146
143
147
145
144
146
144
145
147
147
146
147
144
146
145
148
147
147
148
145
147
145
146
145
147
146
145
146
145
145
145
145
147
146
148
147
146
145
144
146
145
145
146
145
147
145
147
143
145
148
146
146
145
146
147
145
147
145
145
146
144
143
144
145
145
145
145
147
145
145
146
145
145
148
146
147
148
144
146
146
147
146
145
146
148
145
146
147
147
147
145
147
148
146
147
148
146
149
148
148
146
148
148
146
149
148
146
148
147
146
147
146
148
149
147
147
147
147
149
149
149
148
151
151
149
149
148
149
149
148
148
147
149
147
148
146
149
146
150
150
150
148
150
149
151
152
152
151
151
151
150
149
152
151
152
151
152
150
151
151
153
153
154
154
155
155
155
156
154
156
156
156
156
154
155
155
155
156
154
154
153
155
153
153
155
152
155
151
153
152
152
152
149
151
150
149
151
147
151
148
150
151
150
151
150
150
148
148
149
148
150
149
148
147
148
151
149
152
149
152
150
149
149
151
151
157
161
164
171
174
178
180
179
179
175
170
168
163
161
158
154
152
147
145
138
137
132
130
129
127
128
125
127
128
129
130
134
135
139
139
143
144
146
150
152
154
155
157
155
158
156
156
158
159
159
160
161
161
159
163
162
164
163
163
165
163
163
163
163
166
163
165
166
166
165
166
166
168
170
169
168
172
172
171
171
173
173
174
176
175
177
175
177
178
178
180
181
182
182
185
188
186
190
191
191
190
191
193
192
195
193
193
195
193
194
197
195
196
196
195
196
195
194
194
191
192
191
190
188
185
183
182
183
178
177
175
173
170
167
167
162
163
161
159
157
157
153
156
151
154
151
150
149
145
146
145
143
143
144
142
143
141
140
142
140
142
139
140
141
141
140
141
139
142
140
139
142
140
140
139
142
141
141
140
140
142
143
140
143
142
142
143
142
144
143
144
143
146
145
146
143
145
143
145
145
145
147
146
145
145
144
144
144
146
145
145
147
145
146
146
145
146
146
146
145
145
145
146
143
145
146
144
147
145
145
147
145
147
147
147
145
145
145
145
146
146
147
145
147
145
145
145
144
146
145
145
147
146
147
145
147
145
145
145
146
144
147
145
146
145
145
145
146
143
145
144
145
145
146
144
146
144
145
145
145
146
146
145
145
145
145
146
145
147
147
145
147
145
146
146
147
146
147
148
145
145
145
146
146
148
147
148
146
147
147
147
146
148
147
148
146
147
146
147
147
147
148
147
147
148
148
149
147
150
149
149
149
148
149
148
147
149
150
148
150
148
147
148
150
148
151
148
149
147
149
149
150
152
150
151
150
149
149
149
149
148
151
149
152
152
152
152
154
153
156
154
152
154
153
153
153
156
156
153
153
156
153
154
153
155
154
153
154
152
151
151
150
149
149
148
149
148
147
147
147
152
147
148
146
146
147
145
148
147
148
147
148
148
146
147
147
146
149
146
148
145
147
147
148
149
147
147
147
148
150
152
156
161
167
169
173
175
175
175
173
168
166
162
159
157
154
150
148
143
142
135
132
129
126
124
125
125
125
125
127
129
130
132
135
139
139
142
147
147
149
152
153
154
156
156
158
156
157
157
157
160
160
160
161
162
162
161
162
161
165
163
163
161
163
166
164
164
167
166
167
166
166
165
169
166
170
170
169
171
169
171
172
172
172
173
175
174
176
175
177
178
179
179
180
184
182
183
184
186
186
189
188
189
192
190
192
193
192
195
194
194
193
192
194
192
193
192
193
191
190
191
189
188
188
185
185
183
181
178
176
175
173
170
168
168
163
163
160
161
156
154
154
152
150
148
148
146
147
146
146
144
143
141
142
141
141
141
142
141
138
138
139
141
139
140
139
139
138
138
138
139
140
140
141
138
141
140
140
141
139
141
139
141
138
141
140
141
142
141
143
141
141
140
142
144
142
144
143
143
144
143
146
144
145
147
146
145
145
144
145
146
147
147
147
145
147
145
146
147
146
145
147
147
147
146
144
148
147
147
144
145
144
144
145
146
145
145
146
147
145
145
144
146
146
146
145
145
145
142
145
144
148
146
148
147
145
147
146
147
145
148
145
147
148
145
145
144
147
146
148
145
144
146
146
146
148
148
148
147
148
145
145
148
146
145
147
147
147
144
145
147
146
147
146
145
145
146
146
146
145
147
147
147
148
145
145
145
148
146
148
146
149
148
148
148
147
150
149
148
147
148
147
149
148
149
150
148
151
149
149
152
150
148
150
150
148
147
150
151
150
151
152
152
152
151
152
152
153
156
154
154
154
155
154
156
155
154
156
153
154
155
155
152
153
152
152
150
151
151
149
152
150
150
149
148
146
147
148
148
148
148
147
147
147
147
147
146
148
146
148
146
146
147
147
147
148
150
148
148
148
145
147
147
150
151
158
161
168
171
175
180
179
179
176
168
166
160
159
157
154
151
147
141
138
134
130
129
127
124
125
124
123
125
128
129
134
135
138
140
141
144
145
149
151
152
154
153
157
154
155
160
157
160
160
163
162
164
163
165
165
163
165
165
164
162
165
165
165
166
165
166
165
167
166
167
168
170
171
169
169
170
172
172
175
176
176
177
176
176
179
180
180
183
182
180
184
187
185
185
190
188
191
191
191
193
192
193
197
196
198
198
198
198
198
197
199
200
196
199
198
196
196
196
194
197
191
190
189
187
186
185
182
181
178
175
174
170
168
167
164
165
160
160
156
157
154
154
151
150
150
148
149
149
147
148
145
146
146
146
145
144
145
143
145
142
144
143
142
143
140
141
143
142
143
143
142
144
142
144
143
142
144
144
143
144
143
144
144
145
144
145
144
145
144
146
147
147
147
146
147
144
145
147
148
147
148
147
149
146
147
146
148
150
147
148
146
148
147
147
148
146
149
147
148
147
147
147
146
148
149
148
146
147
144
148
146
148
146
146
145
146
146
148
146
147
147
146
146
147
146
148
146
148
148
145
146
145
145
147
144
147
147
145
147
146
146
146
146
145
148
145
145
145
144
145
146
147
147
145
146
145
146
148
145
149
146
148
146
147
147
147
147
148
147
146
148
145
146
147
146
148
147
147
147
147
146
147
148
147
146
147
145
147
147
147
148
147
147
148
146
148
148
150
149
149
149
149
148
148
148
147
151
150
149
151
150
149
149
151
151
151
149
148
149
150
150
150
150
152
151
151
151
152
153
156
153
155
155
154
155
155
155
157
155
156
157
157
158
156
155
155
155
154
153
152
150
151
149
149
149
148
151
148
150
147
150
148
149
148
149
148
150
150
148
152
148
151
149
148
145
147
147
147
148
147
149
148
149
146
148
147
149
148
148
151
151
158
162
169
173
174
178
179
176
173
170
166
162
160
157
155
151
147
144
139
137
133
130
130
127
125
122
126
125
128
130
133
134
134
139
140
144
146
149
149
153
152
154
154
157
158
158
159
158
157
159
159
161
160
163
161
163
160
164
163
163
163
162
164
165
163
166
167
166
168
169
169
171
169
168
170
170
169
171
170
173
171
172
174
174
174
175
177
176
176
178
179
181
183
185
183
186
187
188
188
191
190
191
193
192
194
193
196
193
195
196
196
195
196
196
196
195
193
193
192
189
191
187
186
187
184
182
181
179
175
177
174
172
171
167
165
164
160
159
158
156
154
154
151
151
149
150
147
148
148
144
145
143
143
143
142
143
141
140
140
140
141
139
140
140
139
141
140
142
139
139
141
142
141
142
142
140
141
143
141
143
143
142
142
143
142
143
143
143
143
144
143
144
143
145
143
145
143
145
144
144
144
144
144
145
146
148
147
147
146
144
147
145
147
146
146
145
144
147
145
145
148
147
147
147
145
146
146
147
146
145
147
146
145
144
147
146
145
146
146
146
144
146
147
146
147
148
147
147
147
147
146
147
145
147
147
146
145
146
145
147
146
147
147
145
145
147
144
147
146
147
147
144
145
143
148
148
149
146
148
147
147
148
144
148
145
146
146
145
146
144
147
146
148
146
148
148
146
148
149
151
149
150
151
148
148
147
147
148
148
149
148
150
151
148
150
151
152
152
152
151
152
150
152
155
153
154
154
152
153
153
152
153
151
152
151
152
152
148
149
148
149
149
149
147
150
146
148
148
148
150
147
148
148
147
149
146
150
148
149
148
147
147
146
148
144
146
146
146
145
148
146
146
147
146
146
146
146
149
150
157
162
168
173
175
178
180
176
174
170
166
164
160
156
152
150
148
144
139
137
134
132
130
127
128
127
128
129
129
132
131
135
135
140
140
143
147
147
149
152
154
154
156
155
157
157
158
160
159
161
163
162
162
162
163
163
164
164
166
164
163
165
166
165
167
167
167
167
165
166
167
166
168
168
168
168
169
171
170
172
170
170
172
172
172
174
174
176
178
180
180
182
182
182
183
185
188
188
190
190
189
192
192
192
195
196
194
197
195
196
196
195
195
194
192
194
191
193
190
190
188
186
186
184
182
181
176
176
174
172
170
167
165
162
160
159
158
157
156
155
152
148
149
147
146
147
145
145
144
145
142
142
143
143
144
144
141
143
140
141
143
141
140
139
141
140
137
139
139
139
140
139
140
139
141
139
140
140
140
141
141
141
141
142
142
141
140
141
142
142
142
143
143
143
144
144
145
145
144
145
147
144
145
147
147
144
143
145
144
146
145
146
145
144
145
145
146
144
145
146
144
145
145
144
147
145
146
146
146
147
144
145
146
147
144
146
145
146
145
146
145
144
144
145
147
144
147
146
145
146
145
145
145
145
146
145
146
145
148
147
147
145
146
147
146
147
147
146
145
146
147
145
146
145
146
148
147
145
147
145
146
146
146
145
146
144
145
146
149
148
148
148
147
147
149
148
147
148
148
148
148
147
150
152
149
152
151
153
151
150
152
150
152
150
153
153
152
152
152
152
153
154
155
154
152
151
152
150
152
153
151
150
148
147
149
148
147
147
148
148
147
146
147
148
148
147
148
147
146
147
148
147
147
146
147
147
147
146
148
146
147
148
148
147
148
148
147
146
148
148
149
151
153
156
163
170
171
176
179
174
174
170
167
164
161
158
157
153
150
145
140
137
135
133
133
130
128
128
127
128
128
131
131
135
133
136
137
140
145
145
148
148
152
153
153
155
153
157
157
157
158
160
158
159
159
157
162
160
159
161
159
162
162
162
165
162
163
164
163
164
163
165
166
166
168
166
169
168
169
171
170
173
170
172
171
172
174
173
177
174
177
178
177
179
182
184
182
185
184
184
187
187
187
190
191
191
194
193
193
193
194
196
195
195
195
192
192
195
192
192
191
191
189
185
186
184
182
181
180
178
177
173
172
168
168
166
162
162
158
160
155
155
153
153
150
148
149
145
146
143
144
144
141
144
142
142
143
141
144
141
142
141
141
140
140
139
140
139
139
140
140
142
140
142
140
142
142
141
142
140
139
142
141
142
142
144
143
142
141
143
143
143
143
142
142
143
144
142
144
143
144
144
143
146
143
144
145
145
145
145
144
145
144
145
146
144
146
146
147
146
145
147
146
148
147
147
146
148
144
147
146
145
146
147
144
144
144
146
147
144
147
148
145
146
144
144
145
144
145
144
145
146
145
144
146
146
145
146
145
145
145
146
146
144
147
146
147
146
145
147
146
148
145
148
145
147
146
144
148
145
147
146
147
148
145
147
148
145
147
145
146
145
147
146
147
146
148
148
148
148
148
145
147
148
146
148
148
147
148
147
148
149
148
148
146
148
147
149
147
151
151
150
151
150
150
153
151
150
155
153
153
155
153
153
155
154
154
155
153
152
153
152
151
151
154
152
149
150
149
151
149
149
149
150
149
150
148
149
148
146
150
148
149
148
146
146
148
147
146
147
145
145
144
144
147
147
148
146
148
147
148
147
146
148
150
150
152
156
161
163
171
173
175
176
174
171
166
162
161
158
159
154
153
148
143
138
136
133
131
128
127
125
127
127
128
128
130
132
132
137
137
142
142
147
147
150
150
150
152
153
156
156
158
158
157
158
156
159
159
159
160
160
161
159
160
160
161
161
163
164
162
163
164
163
165
165
165
166
165
168
165
166
168
168
169
170
169
171
170
170
172
172
172
175
175
176
177
179
180
182
184
183
182
184
185
185
184
189
188
189
191
190
191
192
192
194
195
191
195
194
192
190
191
191
190
190
188
187
185
182
181
183
180
177
174
175
170
169
166
165
164
162
159
156
156
155
154
153
152
150
150
149
146
145
145
146
143
144
142
141
142
138
140
140
140
140
140
141
139
140
140
142
141
142
140
140
140
138
142
139
143
140
142
141
142
141
141
144
142
142
145
144
143
144
144
142
146
145
142
145
144
145
146
144
145
145
145
143
144
143
144
144
144
145
146
143
145
145
143
146
144
146
148
146
145
144
147
147
148
145
145
146
147
146
148
148
148
146
148
144
146
146
146
147
148
148
149
148
145
145
145
145
145
145
147
144
145
145
147
147
145
147
146
146
146
144
146
148
145
147
147
146
147
146
147
146
148
150
147
148
146
148
147
146
146
146
147
147
146
147
149
145
150
147
147
149
147
148
148
148
147
147
148
148
146
147
146
147
147
148
148
148
150
147
148
147
149
148
147
147
145
147
148
146
149
147
149
147
148
148
147
149
148
147
147
148
148
149
148
149
150
151
151
151
149
150
149
147
150
149
149
149
149
150
149
150
151
153
152
153
151
153
156
153
155
154
156
155
155
154
153
155
155
156
154
157
152
155
154
155
152
153
153
152
150
150
151
152
153
152
152
151
150
151
150
151
152
150
152
151
148
150
150
151
150
149
150
148
152
150
149
152
149
151
151
152
149
150
152
152
152
158
159
166
168
174
176
180
181
177
175
171
168
167
163
163
156
154
151
146
141
138
134
134
130
128
128
127
127
127
132
131
136
138
141
143
144
145
150
151
153
154
156
155
158
158
159
159
162
160
161
159
164
161
162
163
165
165
163
166
165
166
165
167
166
167
165
167
166
167
167
168
169
169
169
169
168
167
168
170
170
170
172
171
172
174
173
176
177
177
179
179
180
180
181
182
186
185
187
187
186
186
188
189
193
190
193
193
192
193
193
195
196
195
194
196
194
195
192
191
193
189
191
189
187
184
184
181
180
174
176
174
172
168
167
165
165
161
161
158
156
154
153
151
149
150
147
148
146
146
145
146
144
146
145
143
142
142
142
142
141
142
142
143
142
141
143
142
143
142
140
140
139
141
138
142
142
142
143
140
142
142
142
143
143
144
143
144
142
142
141
144
144
145
145
147
145
145
143
145
145
145
144
146
143
145
144
145
146
145
145
144
147
143
146
145
145
145
143
145
144
146
144
146
145
145
147
146
146
144
144
144
144
145
145
147
144
147
145
147
148
147
148
147
148
146
147
145
146
144
146
145
146
143
145
145
145
146
147
144
145
144
144
147
146
145
147
143
146
144
145
146
145
145
145
144
145
145
147
144
147
147
146
147
145
145
145
143
146
145
144
145
146
146
147
146
147
145
147
146
144
146
144
145
144
145
145
146
147
144
145
145
146
147
144
146
143
146
146
146
146
147
147
146
148
144
148
148
146
148
146
149
147
147
146
148
148
148
148
146
148
148
148
148
148
146
149
147
147
146
148
147
148
149
148
151
150
153
152
154
153
154
154
154
153
154
153
154
154
153
154
153
154
154
154
154
156
155
154
154
154
152
151
148
150
149
150
150
147
148
148
148
150
148
147
148
147
148
146
147
147
148
147
148
147
147
146
146
146
148
148
147
147
147
147
147
148
146
147
148
147
152
155
160
164
169
172
175
178
176
173
168
166
163
159
158
156
152
148
144
138
135
131
128
125
125
123
123
126
124
126
129
131
130
137
141
140
147
146
150
150
148
152
155
155
158
158
157
160
159
158
162
160
161
162
160
161
161
162
163
163
165
165
164
165
164
166
164
167
167
167
166
168
166
168
168
169
171
169
171
171
172
171
175
175
175
177
177
178
176
178
180
178
182
183
185
184
184
187
186
189
189
189
191
190
193
193
195
195
195
196
195
195
193
197
194
195
196
194
194
193
192
191
190
188
188
187
183
183
179
179
175
175
171
170
166
164
165
162
159
160
158
155
155
152
151
149
149
147
148
148
146
146
144
142
144
143
143
142
144
142
141
142
140
142
140
143
140
140
140
139
140
140
142
140
142
140
140
139
141
142
141
142
141
142
142
143
141
145
143
143
143
143
143
143
146
145
146
144
145
145
145
144
147
144
145
145
146
143
145
144
147
145
147
147
145
147
147
146
145
147
146
147
145
147
145
143
146
144
147
148
144
147
144
145
144
148
145
144
146
143
145
143
147
146
144
143
144
146
145
144
144
143
147
144
146
144
142
143
145
144
144
146
144
145
144
145
145
145
146
146
147
143
146
145
145
146
145
146
148
147
146
148
147
149
147
147
147
147
147
147
147
146
146
146
147
146
145
148
144
146
145
148
146
146
145
146
147
147
146
148
149
148
148
148
147
149
148
147
148
147
147
146
147
150
147
149
151
148
148
148
149
150
148
149
148
147
149
150
150
151
151
152
151
150
150
149
151
149
152
151
151
151
152
155
153
153
154
152
153
153
152
152
155
154
154
154
153
156
155
151
154
155
155
155
154
154
154
151
151
152
151
149
147
148
149
148
148
147
148
149
148
150
149
147
148
147
146
149
146
146
147
145
147
148
146
148
146
146
146
145
147
147
149
148
150
146
146
149
148
151
155
159
167
171
173
177
178
176
177
172
168
164
159
159
155
154
149
146
140
137
133
130
127
126
125
125
125
125
126
128
130
131
134
139
139
141
144
146
149
152
154
155
158
158
157
159
160
161
160
161
161
161
162
161
160
163
162
162
162
164
161
164
165
165
166
164
167
166
166
166
168
167
170
167
170
169
169
168
171
172
173
172
175
173
174
175
175
176
179
180
182
183
183
184
185
185
187
188
189
190
191
189
191
191
192
193
192
194
194
194
195
197
196
195
195
193
192
192
192
191
191
189
190
189
185
185
184
180
181
177
175
173
170
168
166
163
163
160
159
155
156
150
152
149
149
148
150
147
143
146
144
144
143
145
142
142
142
140
141
140
141
141
141
141
139
140
141
141
141
142
140
140
141
139
142
141
141
142
141
144
143
141
143
143
142
143
143
142
144
141
142
143
141
144
143
145
144
143
145
143
145
144
145
144
146
145
145
146
146
146
145
145
144
144
145
145
145
145
144
144
144
144
144
145
146
144
145
144
145
143
145
145
145
145
145
146
146
142
145
144
143
144
143
142
144
143
145
144
144
144
146
143
145
144
144
145
145
147
145
146
145
145
144
146
145
144
145
147
144
143
144
147
146
147
146
146
144
145
144
143
144
145
144
144
143
146
145
146
146
146
146
144
147
143
146
145
148
146
146
147
144
146
147
146
147
146
148
146
145
144
145
146
145
145
147
147
146
148
146
149
147
150
148
146
149
145
148
147
149
148
149
147
148
146
149
149
150
151
153
154
152
154
152
153
155
154
156
155
155
153
153
153
153
154
154
155
152
154
153
154
156
153
156
152
155
153
155
154
154
154
155
153
152
150
148
148
150
150
148
151
147
148
146
151
146
150
148
150
148
148
146
149
147
145
147
144
147
146
149
149
148
149
149
150
147
148
147
152
150
157
161
165
169
174
176
179
178
178
172
168
163
159
156
156
153
149
146
141
136
134
130
128
127
125
127
127
125
126
128
131
133
136
138
139
142
146
146
148
152
153
155
155
156
157
157
159
161
159
161
160
160
161
161
162
162
161
163
164
164
163
166
165
168
166
169
166
166
167
169
170
171
171
171
171
171
171
170
174
172
172
174
173
175
176
177
178
180
179
181
180
181
183
182
185
187
187
189
190
191
191
191
194
195
194
195
197
195
197
197
196
199
198
197
197
196
198
193
193
194
191
190
190
187
187
185
183
180
181
179
173
172
172
169
169
167
163
162
159
156
155
151
152
151
149
150
147
146
146
146
145
145
144
143
147
143
142
142
143
141
144
140
140
141
139
139
140
141
141
140
141
141
139
142
140
141
141
141
142
141
141
142
142
140
142
144
144
143
141
144
144
144
146
145
146
144
144
144
145
146
146
148
146
144
144
144
144
146
145
145
146
145
145
144
146
146
146
146
146
145
144
146
144
147
146
146
144
146
146
144
147
146
147
147
145
146
144
145
143
146
147
144
146
144
144
144
145
146
146
146
147
145
147
145
144
147
146
145
148
145
145
146
145
144
146
147
145
147
147
147
145
146
147
147
147
146
145
144
146
145
148
146
148
146
145
146
148
147
147
150
148
147
148
148
148
148
147
149
147
147
149
146
145
149
148
149
149
150
150
148
150
150
150
151
152
150
153
153
152
153
156
156
155
156
155
155
154
155
154
155
155
152
153
153
156
153
153
154
155
153
151
153
154
154
155
153
151
152
151
152
151
151
149
151
150
146
147
148
148
145
147
149
146
146
148
145
145
147
146
146
145
146
147
145
146
145
146
147
146
147
145
145
145
147
148
149
153
158
164
170
172
176
178
176
174
171
165
162
159
159
158
153
149
144
140
136
134
132
130
128
127
126
129
127
128
130
132
135
136
138
139
143
146
149
148
153
155
152
152
155
154
157
155
157
157
158
159
158
159
162
162
162
163
162
162
162
165
165
164
164
166
165
164
165
167
164
167
168
167
167
169
169
169
172
172
173
172
174
172
174
177
176
176
178
178
180
180
180
184
184
185
187
189
188
189
191
192
192
195
195
194
194
196
196
195
197
196
196
196
196
196
196
197
195
195
192
191
192
188
186
185
183
180
180
177
176
173
170
168
168
167
165
161
160
157
156
153
154
154
151
150
149
148
146
145
143
147
144
143
144
142
143
142
142
141
142
143
140
139
140
142
141
143
141
141
143
141
140
141
142
142
143
141
140
140
143
142
142
144
143
141
142
145
141
143
144
145
143
145
145
144
146
146
146
145
147
144
143
144
144
143
145
144
146
145
145
144
144
145
144
145
145
144
145
143
144
144
144
143
144
145
146
144
144
144
145
144
145
146
145
145
145
146
146
145
144
147
146
146
144
144
146
146
146
144
146
143
143
142
144
145
145
143
145
144
142
144
145
144
146
146
144
143
143
145
145
146
146
146
145
145
146
146
145
149
147
145
146
146
143
145
146
146
147
147
145
146
145
147
146
147
145
147
146
144
144
147
146
149
147
150
148
147
149
151
150
150
154
154
151
154
153
154
153
154
153
153
151
154
154
153
152
151
151
152
151
150
151
151
151
153
152
152
154
152
151
150
149
149
148
146
148
146
145
148
145
147
147
148
146
146
148
146
145
148
146
144
147
145
146
146
144
146
144
146
148
146
148
147
147
147
146
148
150
152
156
163
168
170
173
175
176
172
168
165
159
160
155
154
152
148
143
142
135
134
132
129
127
126
125
128
129
126
130
132
133
133
136
137
140
143
146
147
149
150
151
155
155
156
157
157
160
160
156
159
160
159
161
163
159
160
161
163
163
164
164
164
164
163
165
164
166
167
167
168
166
170
168
169
170
171
169
173
172
170
174
173
172
176
176
176
178
179
178
181
181
183
182
184
184
184
187
187
185
189
191
191
193
191
192
192
190
193
195
194
192
195
191
194
193
191
192
191
189
190
187
186
184
184
183
178
177
175
172
171
169
167
164
165
160
159
156
156
155
154
151
152
149
149
148
147
146
145
144
145
142
142
139
139
142
142
140
141
140
140
141
140
142
140
139
141
139
141
141
139
140
141
142
140
140
140
139
140
140
142
141
141
140
140
138
140
142
143
143
143
145
144
144
142
143
145
145
142
142
143
143
143
145
143
143
145
144
142
142
143
143
145
146
146
145
145
145
143
145
146
145
144
147
145
144
145
146
143
143
146
145
145
143
146
147
146
145
145
145
146
146
146
147
146
145
145
145
142
143
144
143
144
145
144
146
144
145
143
143
144
143
144
145
143
142
144
145
144
145
144
145
144
144
145
146
145
145
143
145
144
145
145
147
148
147
148
148
147
146
146
146
146
149
148
147
149
150
150
148
147
150
148
148
149
150
147
152
152
152
153
154
152
153
154
153
155
157
154
152
156
152
153
153
155
155
156
154
155
154
152
155
155
153
152
153
153
151
153
151
151
150
150
148
149
147
146
149
149
147
150
148
146
146
146
146
147
144
145
146
144
144
146
142
144
146
143
145
146
146
144
146
146
145
145
145
146
152
153
161
168
169
172
176
173
171
169
165
161
158
157
155
151
148
145
142
136
132
132
129
125
125
124
126
126
127
131
129
133
136
137
140
144
144
148
148
148
152
153
154
155
155
154
156
157
155
158
158
159
160
162
162
160
162
161
162
164
163
164
164
166
163
166
166
165
167
167
165
165
167
167
168
168
167
170
168
170
170
172
171
171
174
174
175
176
175
175
179
180
180
183
183
184
185
187
187
189
191
191
191
190
191
194
194
194
194
196
196
195
194
196
195
194
193
195
192
189
189
187
185
185
183
182
177
177
176
173
170
170
169
165
163
163
159
158
156
155
153
151
150
149
150
149
145
145
144
143
143
144
141
141
141
141
143
142
142
143
140
139
141
140
140
141
140
140
142
140
139
142
139
140
141
141
141
141
141
142
142
143
143
143
142
142
143
144
142
143
143
141
143
143
143
141
144
143
143
144
145
145
144
143
145
144
146
145
145
144
146
145
149
146
147
148
146
146
147
146
148
150
147
147
148
147
147
147
147
148
148
147
146
147
148
144
147
146
145
147
145
146
146
146
147
145
145
148
145
146
146
145
147
145
146
146
146
147
144
147
147
147
149
145
145
146
146
147
149
148
147
149
149
146
148
148
148
149
147
146
145
144
146
145
147
147
146
147
146
147
144
148
146
147
147
149
147
147
147
146
147
148
149
147
149
148
148
148
150
150
148
149
150
149
148
150
149
151
150
150
151
151
150
149
152
150
153
154
155
152
152
155
155
156
155
157
154
155
153
153
154
154
154
156
155
153
154
155
154
155
157
153
153
154
153
155
153
153
153
152
152
150
150
151
148
150
148
148
148
147
147
147
146
149
147
146
146
147
147
147
148
148
147
148
145
147
146
148
149
148
149
149
146
146
149
151
155
160
163
168
173
173
175
178
175
173
167
163
160
159
157
154
152
147
143
138
134
131
129
127
127
125
125
125
126
128
131
132
137
137
139
141
145
146
147
150
153
155
156
158
156
156
159
161
159
159
159
160
161
162
160
161
163
164
162
164
162
161
164
165
165
165
166
167
166
166
166
168
170
169
170
170
170
170
173
172
174
175
174
173
178
175
179
179
179
182
181
181
184
184
183
185
187
189
192
190
190
192
193
193
195
196
195
195
197
193
195
197
196
197
195
194
194
194
194
193
192
189
189
187
187
183
180
182
178
176
174
172
169
168
166
165
163
160
161
157
154
153
151
152
150
151
148
145
145
145
145
144
145
145
143
144
143
143
142
141
142
142
140
141
142
139
139
140
139
140
140
140
141
140
140
140
142
144
140
142
143
143
143
142
143
143
145
143
142
142
143
144
141
145
145
146
144
143
144
143
145
145
146
146
144
145
144
145
145
145
146
146
145
145
144
145
146
145
145
146
147
145
146
149
146
147
148
147
144
145
148
145
146
148
145
146
147
145
145
145
148
144
146
147
145
144
146
144
145
145
148
146
146
146
144
144
145
145
144
146
142
144
146
144
144
146
143
145
145
143
145
145
146
146
144
147
146
143
144
145
144
147
145
147
146
143
146
145
146
146
144
146
145
145
147
145
148
146
147
146
147
145
145
145
149
145
148
148
146
146
147
148
147
148
148
148
149
149
148
151
153
153
153
153
153
154
152
153
154
153
153
154
153
154
153
153
153
154
155
157
154
152
155
154
156
154
152
153
151
151
152
150
152
152
151
149
149
149
149
149
149
149
147
147
147
146
146
148
145
148
147
146
146
147
146
146
148
147
147
148
146
145
146
147
145
147
147
146
144
147
149
153
156
161
166
171
172
175
176
173
168
166
162
158
154
151
149
147
144
140
135
132
129
126
124
123
123
125
126
127
128
130
134
134
136
139
143
145
146
147
149
153
153
154
156
155
158
159
160
159
160
163
164
162
161
160
161
161
163
162
163
165
165
163
165
164
166
167
165
165
167
166
168
169
167
171
171
169
168
169
171
171
172
171
172
174
177
175
176
178
180
181
180
180
182
182
184
185
186
187
190
189
189
192
193
192
193
196
195
194
195
196
197
196
197
196
195
193
195
192
191
189
188
188
186
182
182
178
179
177
175
172
171
170
168
164
163
161
162
159
156
154
155
153
152
151
149
149
148
147
146
144
141
143
145
143
142
142
142
139
139
140
140
141
140
138
140
138
138
139
140
140
140
140
140
141
138
140
141
140
140
141
140
139
142
142
142
144
143
142
144
142
142
145
142
142
145
143
143
144
142
145
145
145
145
144
145
145
146
145
145
146
144
147
143
145
145
142
144
143
145
145
143
147
144
145
146
145
146
145
145
144
145
145
147
146
147
144
147
146
147
147
145
148
145
146
145
145
145
147
145
147
148
146
147
148
146
147
148
145
146
146
144
145
146
146
146
147
147
148
148
145
146
148
146
147
147
146
146
147
145
148
147
147
148
147
146
146
147
147
148
146
148
147
145
147
148
145
152
148
148
149
145
145
146
145
146
148
145
145
146
144
147
145
146
148
149
147
147
149
147
148
148
150
151
151
150
148
151
152
153
152
155
155
153
155
154
154
156
157
155
155
154
154
153
154
155
155
155
156
156
156
154
156
155
153
154
154
154
152
152
152
153
152
152
152
150
152
150
148
150
148
148
149
145
145
145
145
147
146
146
147
148
146
146
145
147
148
147
147
147
145
147
149
147
148
148
147
145
147
148
151
152
156
162
167
170
172
174
176
176
172
166
163
160
156
154
150
147
144
139
135
133
129
126
123
124
124
125
125
124
125
128
131
134
137
139
141
143
144
146
150
152
153
153
156
158
158
157
160
158
159
159
159
160
158
159
161
161
161
160
161
161
159
162
163
163
162
164
165
164
165
167
168
167
169
168
170
169
169
170
172
171
170
173
173
173
174
175
176
176
178
180
182
182
183
183
185
186
186
188
187
190
192
190
192
192
193
196
196
195
194
194
195
197
197
196
195
195
195
193
194
192
190
189
190
188
186
182
180
177
177
176
172
173
168
165
166
167
163
162
159
155
155
153
150
151
151
149
146
145
144
144
141
142
143
143
140
141
141
141
141
139
139
141
140
140
140
139
140
142
139
140
139
142
140
140
140
141
141
141
139
142
142
140
142
142
145
145
143
142
141
141
143
142
143
144
145
144
144
145
146
145
146
145
144
142
145
143
146
146
146
145
146
146
146
145
144
145
147
145
146
145
145
144
146
146
144
145
147
144
145
144
146
147
148
147
148
146
146
147
145
147
147
146
146
147
144
146
146
146
145
146
148
147
147
146
147
146
146
145
146
146
146
144
144
143
146
143
144
146
144
144
146
146
146
145
147
149
147
145
145
147
146
146
146
146
145
147
146
146
146
146
144
146
145
144
145
148
147
146
145
145
147
146
144
147
147
147
147
147
149
149
148
148
148
147
148
148
146
146
147
148
149
149
148
149
150
148
149
150
150
149
148
151
152
150
153
152
154
152
155
155
156
153
155
156
158
156
154
155
154
156
155
154
156
156
154
153
154
154
154
155
155
153
155
153
153
150
150
150
150
149
151
151
148
147
147
146
147
145
145
145
145
145
147
147
147
146
146
146
146
147
145
145
147
144
144
144
146
146
146
149
147
145
146
148
149
152
158
161
166
169
173
174
172
170
166
161
159
155
153
150
148
144
141
136
134
131
128
126
123
123
122
124
124
126
128
129
130
133
136
139
139
142
145
148
148
150
153
154
156
156
159
161
159
157
160
161
161
160
162
159
160
161
161
161
163
163
164
163
165
165
166
167
165
164
167
168
166
165
168
169
171
169
169
171
170
172
172
174
175
176
178
179
179
177
181
182
181
183
183
187
187
186
186
187
187
191
191
194
194
191
192
194
194
196
196
196
194
193
194
197
195
194
196
194
192
192
193
189
188
187
186
183
179
179
177
176
174
173
169
165
163
163
161
158
156
157
153
153
150
149
147
147
146
146
146
144
144
141
142
144
144
141
142
141
140
140
142
140
142
141
140
140
139
138
140
141
141
141
140
142
141
141
142
140
141
143
143
143
143
141
143
142
144
144
144
143
144
142
143
143
145
144
143
142
144
143
143
143
144
145
143
144
143
144
145
145
145
144
145
147
146
143
146
147
146
145
147
146
148
145
144
144
149
146
148
145
145
147
145
145
144
147
147
145
145
144
143
144
143
144
145
146
145
144
144
145
144
145
147
146
145
145
145
146
146
145
145
149
147
146
147
147
146
149
147
147
146
145
146
146
144
146
148
146
146
147
147
147
146
147
145
147
145
146
146
146
149
149
147
148
148
147
148
147
147
149
148
148
146
147
148
148
147
149
148
147
145
147
148
147
148
149
149
146
146
148
147
147
148
147
149
150
148
149
148
147
148
147
150
150
149
148
147
148
149
151
150
150
152
152
151
154
154
152
154
155
154
155
155
155
156
159
158
156
156
154
154
154
157
155
155
157
155
156
155
154
155
156
154
154
154
153
153
152
149
152
149
148
150
147
149
149
151
151
148
150
148
148
148
149
148
150
150
150
147
147
147
147
148
150
149
149
148
149
149
149
150
149
147
150
149
154
156
162
169
174
177
178
179
180
174
171
167
164
163
156
155
154
149
144
141
136
133
131
128
125
128
125
125
127
128
130
131
134
135
140
142
146
147
149
150
152
153
153
159
157
158
158
157
158
158
159
159
159
161
160
161
163
161
162
163
163
166
164
165
166
166
169
165
171
168
169
169
170
171
171
169
171
173
171
173
176
174
176
178
178
178
180
179
178
180
182
181
183
184
186
186
186
187
189
189
191
191
193
193
193
195
195
196
198
197
197
199
197
198
198
199
198
198
197
195
193
192
194
191
189
190
187
182
180
181
178
176
174
174
168
167
167
163
161
160
159
157
155
153
152
152
151
150
149
145
145
145
144
143
143
141
144
141
139
140
139
138
139
142
141
142
141
144
142
140
140
142
141
139
141
142
141
141
140
143
141
140
141
141
140
141
142
140
141
143
142
143
141
140
140
142
143
143
141
141
142
140
140
141
141
141
142
142
140
141
141
139
141
141
142
142
142
140
142
144
140
142
144
142
141
142
142
144
143
144
144
141
142
142
143
143
144
142
143
142
141
143
143
143
144
145
145
143
143
142
143
143
143
142
144
142
143
143
143
143
142
143
142
143
144
142
141
143
144
143
144
146
145
142
144
147
143
144
143
145
145
144
144
147
147
147
147
146
144
146
145
146
146
146
146
145
146
146
147
146
145
147
146
146
146
146
145
148
148
147
148
147
145
147
149
149
152
151
153
153
153
152
153
155
153
155
155
153
154
155
154
153
155
156
155
152
153
155
153
153
154
155
154
153
153
152
152
150
150
149
150
148
147
148
148
147
146
148
145
146
147
145
146
148
147
147
147
145
146
147
147
143
146
147
145
146
146
145
148
148
147
147
148
147
145
148
152
154
159
165
170
175
177
176
177
176
169
166
162
158
156
153
152
148
143
138
137
131
130
128
125
126
127
124
126
127
128
130
130
134
135
138
140
142
146
147
150
149
153
155
155
154
156
158
157
158
160
160
160
161
159
158
160
160
161
163
163
162
164
164
162
164
164
164
166
165
165
166
168
169
169
169
168
172
169
169
172
172
173
174
175
174
175
177
177
178
181
180
181
181
183
183
184
187
186
187
190
193
191
191
194
195
194
196
196
196
196
196
195
194
198
195
194
196
193
192
192
190
190
189
187
185
184
180
179
177
173
173
172
169
165
164
160
160
158
157
157
155
152
151
150
148
148
148
147
146
144
143
144
143
142
143
145
142
141
140
140
139
141
142
141
138
141
141
140
139
141
140
140
139
139
139
140
142
141
140
140
142
140
141
143
143
143
144
143
143
144
144
143
144
145
143
145
145
142
145
145
144
145
147
146
145
146
144
143
143
146
144
144
146
142
143
145
146
144
146
147
146
145
145
145
146
146
146
145
145
145
145
145
147
146
146
144
145
145
145
146
148
147
146
144
147
146
144
145
146
146
146
145
145
146
146
146
147
146
148
148
148
146
147
146
147
146
146
145
145
146
148
145
147
147
148
146
145
147
148
