143
143
145
146
148
146
147
147
147
147
147
148
150
148
147
148
148
148
151
152
154
149
152
151
151
153
151
153
155
155
155
153
155
153
154
156
158
157
156
157
155
157
157
158
158
160
160
160
160
160
159
161
161
163
164
163
160
164
163
166
163
163
165
166
164
166
164
166
167
167
166
166
164
164
165
166
165
165
165
163
162
163
163
165
162
161
163
160
157
156
160
158
157
156
153
155
153
151
152
151
152
151
148
148
146
145
145
146
146
143
143
142
142
140
140
140
142
141
139
136
138
137
139
139
139
141
139
139
137
139
139
140
140
142
142
138
137
140
140
141
140
138
138
140
138
139
139
138
141
143
139
140
138
139
140
141
140
141
140
141
138
139
139
139
140
142
138
139
138
137
139
140
138
140
139
140
138
139
138
140
139
138
139
139
138
139
140
139
142
141
138
139
138
139
139
138
139
138
140
138
138
137
139
139
139
140
140
140
138
138
140
139
139
138
139
140
138
138
138
140
140
139
142
142
140
141
141
141
142
140
141
141
139
141
144
142
145
144
144
146
146
146
146
148
147
146
146
147
145
144
144
145
145
143
142
142
140
139
142
144
141
142
143
140
140
140
142
140
141
140
141
139
137
140
141
139
141
141
139
139
140
138
139
141
141
143
142
143
147
149
152
156
162
167
167
168
170
170
167
159
153
146
136
125
117
112
106
107
108
110
111
113
116
123
127
128
133
135
138
138
138
140
143
143
144
146
145
144
145
147
148
148
148
149
149
149
150
151
148
151
151
150
150
152
151
149
152
155
155
154
154
155
154
153
154
154
155
156
155
155
156
156
157
157
158
160
158
159
156
159
161
161
160
160
161
161
160
162
163
162
165
165
164
165
166
164
165
167
165
168
165
167
167
166
166
168
167
167
167
167
167
166
165
166
166
165
165
164
164
162
161
164
162
162
162
159
157
158
158
157
157
156
155
155
150
149
150
149
149
149
148
147
147
145
145
144
145
142
141
143
142
141
141
142
142
140
140
141
140
140
140
142
140
140
143
142
139
141
141
141
141
140
141
140
139
140
140
142
142
141
143
139
140
140
141
142
142
142
142
143
143
143
141
142
143
143
143
141
142
140
142
142
144
142
141
141
140
142
143
142
141
142
140
140
140
142
140
142
142
142
141
140
141
141
141
141
141
141
141
141
142
140
142
141
142
143
143
141
142
141
142
142
142
142
143
141
142
142
142
142
143
144
143
145
143
142
141
145
144
145
144
143
142
145
144
143
144
145
146
145
146
150
149
150
149
149
149
149
148
148
146
148
147
149
147
146
146
145
143
143
141
143
142
141
139
143
141
142
143
144
143
141
141
141
141
142
143
142
141
140
138
139
141
141
143
142
143
142
143
146
148
150
153
157
163
165
169
172
174
173
167
163
155
147
138
128
121
115
111
108
107
110
111
114
120
124
126
130
133
136
140
139
140
143
145
145
144
145
146
145
147
148
150
151
151
149
150
150
150
152
153
153
153
154
153
152
155
153
153
154
153
155
156
156
155
155
155
156
157
157
158
157
158
160
159
160
157
159
159
159
160
162
162
162
163
163
163
163
163
163
165
165
167
167
166
166
169
167
167
168
169
168
170
168
168
169
169
171
171
169
169
168
170
170
169
168
165
165
167
167
166
165
166
163
163
162
162
163
163
161
160
157
158
155
155
156
154
153
152
151
150
150
149
149
147
148
149
145
145
144
144
143
144
143
143
141
143
143
141
142
143
143
143
142
140
141
143
141
141
142
142
143
144
142
142
143
142
143
144
142
143
142
142
143
144
143
143
142
143
143
142
141
143
145
143
143
144
142
143
143
145
143
142
145
142
143
143
142
144
144
144
142
143
145
142
141
143
143
141
143
143
143
143
143
143
142
144
143
143
141
142
143
143
144
142
142
143
143
143
144
143
144
143
144
141
142
142
142
146
144
144
143
145
145
144
144
143
145
145
145
143
145
142
144
148
147
146
148
147
147
148
147
149
151
149
151
150
148
151
151
151
150
149
149
149
149
146
147
146
146
144
144
143
143
144
143
142
144
145
144
146
143
145
143
144
144
143
144
145
144
143
143
144
145
143
144
145
145
145
145
148
150
153
155
159
165
169
173
174
174
172
170
163
157
147
139
130
121
115
110
109
109
110
113
117
120
124
130
133
134
138
139
143
143
145
147
146
147
150
149
150
150
149
151
151
151
152
153
152
153
152
154
154
155
155
154
157
156
157
157
157
156
156
157
158
159
159
159
159
158
159
158
159
159
162
161
161
162
163
163
163
162
163
163
163
165
163
164
166
166
167
166
168
168
166
167
168
170
171
170
170
169
171
170
172
172
173
173
173
171
172
171
171
172
171
171
170
170
169
171
169
169
167
165
165
164
165
165
165
163
163
161
161
160
160
159
158
157
157
155
154
154
153
152
151
151
151
148
148
147
148
146
146
145
145
144
145
144
142
143
143
144
146
145
144
144
145
144
143
145
144
145
145
143
144
145
145
145
144
145
146
146
144
146
147
145
145
145
144
145
146
146
147
146
144
146
146
145
146
144
146
144
146
148
146
145
146
146
146
146
146
147
145
148
145
145
145
145
147
146
145
145
146
146
149
148
147
146
144
145
144
146
146
147
145
145
146
145
143
145
146
146
146
146
146
147
147
145
148
149
148
148
146
146
146
146
148
148
149
147
148
146
148
150
150
150
150
151
152
151
152
151
151
152
152
151
152
151
149
150
150
148
146
147
148
145
144
144
145
147
147
148
147
146
144
145
144
145
147
146
145
146
144
144
146
145
145
144
143
145
143
143
145
147
148
149
151
153
157
163
167
170
173
175
175
173
167
161
152
144
135
125
118
111
109
110
110
114
116
118
123
127
130
137
138
143
144
145
145
146
146
148
147
149
151
150
151
151
152
151
154
153
154
154
153
153
154
155
156
156
155
156
155
156
156
156
158
157
160
158
157
159
158
159
160
160
161
160
162
160
162
163
163
164
163
164
163
163
164
162
166
166
167
167
167
170
169
168
169
170
169
172
169
170
168
170
171
173
172
174
172
172
172
171
169
171
171
174
173
172
171
171
171
172
170
169
168
166
166
165
165
165
166
164
163
161
160
160
158
156
158
154
155
154
154
153
153
151
151
149
148
149
146
145
146
146
148
144
144
143
144
144
144
143
145
141
144
145
144
144
143
144
145
144
144
143
144
143
144
143
146
146
145
144
145
144
145
144
147
144
144
145
144
144
146
144
143
147
143
145
146
143
145
147
146
146
146
144
145
144
143
145
144
143
146
144
143
144
145
145
143
144
144
145
144
144
144
148
145
144
145
145
145
144
144
145
144
144
146
144
145
146
145
145
147
147
145
144
145
146
147
146
146
147
146
147
147
146
145
147
150
148
148
149
151
151
152
151
151
151
154
151
150
151
149
151
151
151
148
150
146
145
145
146
145
146
145
144
146
147
145
143
146
145
145
145
144
143
143
146
144
145
144
144
145
146
145
145
145
146
147
147
146
147
150
155
160
162
167
172
174
175
176
174
170
164
158
148
139
128
121
115
110
110
110
112
113
119
120
127
131
135
138
142
144
142
143
147
148
149
150
148
150
150
151
151
152
151
153
154
153
153
154
155
156
155
156
157
156
158
158
159
156
157
156
158
159
159
159
160
159
159
161
160
161
161
162
162
163
163
162
162
163
163
165
164
164
168
166
165
164
167
167
167
168
169
168
170
170
169
172
173
171
172
171
173
173
170
172
172
173
175
173
174
172
171
172
171
172
171
171
173
170
169
170
168
166
166
166
166
166
166
163
164
159
161
161
161
158
158
156
156
153
153
153
152
151
149
149
148
151
148
146
145
147
146
145
145
144
143
145
145
145
145
146
147
144
144
144
143
145
143
145
145
145
144
146
144
143
145
147
146
144
144
144
146
145
144
145
144
145
146
147
147
147
145
145
146
148
148
146
147
145
147
146
147
147
145
145
147
147
146
145
145
146
148
145
146
146
146
147
146
146
146
146
146
146
146
147
147
147
147
148
145
144
143
143
145
146
146
145
146
145
147
148
146
147
146
148
147
147
147
146
147
149
149
146
150
151
151
152
151
153
152
152
150
154
152
151
154
152
153
150
149
147
146
148
146
145
147
145
146
144
145
146
146
146
144
145
148
146
147
144
145
146
147
147
147
144
145
145
146
146
146
148
147
147
148
151
154
156
161
166
171
177
176
179
180
176
170
163
153
145
137
128
118
114
111
111
112
115
119
122
126
130
135
136
140
142
143
146
149
148
148
149
150
151
152
152
152
152
157
154
156
155
154
154
156
156
156
157
157
158
158
160
160
160
158
159
160
160
160
160
161
161
160
162
163
163
162
163
163
165
165
165
164
164
165
164
166
167
167
168
169
166
168
167
167
170
171
171
171
172
171
172
172
172
173
175
173
173
174
174
175
176
175
175
175
173
173
174
172
171
174
173
170
171
171
170
171
170
169
169
167
168
166
164
164
164
163
162
162
160
158
157
159
156
156
156
154
151
150
151
151
151
148
147
147
146
146
145
145
146
147
144
145
143
143
145
145
143
147
147
143
145
145
143
144
144
144
146
145
146
144
146
146
147
144
147
145
145
145
147
148
146
146
146
145
146
146
144
144
145
145
147
147
144
147
145
147
146
145
147
145
145
145
146
147
146
147
147
146
147
146
146
146
147
148
147
146
146
146
146
144
145
146
144
144
146
146
143
145
145
145
145
145
146
147
146
145
146
147
149
149
146
146
147
146
146
148
149
148
148
148
149
152
151
152
153
153
152
155
152
150
152
150
151
151
151
148
146
147
148
148
148
146
145
147
145
148
147
148
147
146
147
146
149
147
145
147
149
146
148
145
147
147
146
146
147
147
146
147
149
150
151
153
157
161
165
169
174
178
179
179
177
172
166
159
150
141
131
122
116
114
114
113
112
115
122
126
131
134
136
139
143
143
144
146
148
149
150
151
151
152
152
153
152
155
155
155
154
155
156
157
158
157
158
157
158
159
160
158
158
160
159
160
159
161
160
161
160
161
162
161
162
163
164
162
163
164
166
164
162
164
168
167
168
167
167
167
168
169
170
171
170
171
170
170
172
174
174
174
172
174
172
174
173
174
174
175
175
176
175
175
174
173
173
174
176
175
175
172
173
172
172
171
172
170
168
168
168
167
166
165
165
163
163
161
161
160
158
160
156
155
153
153
153
150
151
151
151
152
149
147
147
148
147
147
147
147
145
147
146
145
146
147
144
146
145
144
147
147
147
147
145
147
146
145
146
144
145
145
147
147
145
147
147
146
147
147
146
147
146
145
145
147
147
146
147
149
147
147
146
148
146
147
148
147
145
145
147
148
147
146
150
148
145
147
147
147
147
148
148
146
148
148
147
148
148
147
146
147
147
146
149
149
146
149
147
148
148
148
149
149
147
149
149
148
148
150
147
147
149
150
150
150
149
153
150
151
152
154
153
152
155
153
153
153
154
153
153
152
152
151
151
149
150
149
147
150
146
149
149
148
147
149
148
148
148
146
150
146
148
147
148
147
147
147
147
147
147
147
148
148
145
148
149
149
149
153
155
158
163
167
170
174
178
178
178
174
167
161
153
147
137
128
122
117
113
112
112
116
117
123
129
131
135
138
142
144
144
147
148
149
151
154
153
153
152
155
156
155
155
157
156
156
157
159
160
158
158
158
157
159
160
160
160
159
161
161
161
161
161
163
163
163
162
163
163
166
164
165
165
164
164
165
166
165
166
166
168
167
168
170
167
168
170
170
172
173
171
172
173
173
173
176
172
176
176
175
175
179
178
175
175
177
177
177
176
176
176
176
176
174
174
174
175
175
173
174
172
172
171
170
171
170
169
168
167
167
166
162
163
163
161
160
161
157
157
157
155
154
154
154
153
152
151
150
149
148
148
150
149
148
147
146
146
146
146
148
147
148
145
147
150
148
149
146
147
148
148
147
147
148
148
148
147
149
149
147
147
147
149
150
150
148
150
147
147
149
149
148
149
148
147
149
149
147
150
149
149
149
149
148
147
147
149
150
151
148
149
149
148
147
150
150
148
148
147
149
147
149
147
148
150
148
148
149
149
149
148
148
148
150
148
148
149
151
151
150
149
149
149
150
150
149
149
149
148
151
152
152
152
153
152
153
154
156
156
154
155
154
155
157
155
154
152
152
151
151
149
149
150
150
148
148
148
148
150
150
150
151
149
148
148
149
149
148
150
147
149
148
148
148
146
149
147
149
148
151
152
151
152
155
155
160
165
169
172
176
176
177
179
174
167
162
154
147
137
129
123
119
116
114
116
119
123
126
131
132
136
140
144
145
149
150
152
151
151
152
153
153
155
155
155
156
157
156
156
157
158
159
159
160
161
160
159
161
162
161
162
162
161
161
161
163
163
163
163
164
164
162
162
164
164
165
167
165
164
165
165
167
166
165
168
170
167
167
169
168
170
172
172
171
171
171
171
174
174
174
175
173
175
174
173
175
173
176
177
178
178
176
175
177
175
174
175
175
171
172
170
174
174
172
175
171
170
169
170
170
167
168
168
166
164
161
161
161
159
157
159
158
158
155
155
157
156
153
152
151
152
150
150
148
148
150
148
149
149
147
145
147
147
148
149
147
147
146
148
148
146
148
149
148
149
149
149
150
150
148
147
146
147
149
150
149
150
148
147
150
151
149
151
150
149
149
149
149
149
151
149
149
150
151
150
149
149
151
149
151
151
149
149
150
148
150
150
150
149
150
150
150
150
149
148
146
148
149
150
151
151
151
148
149
152
151
148
151
150
149
149
151
150
152
151
153
151
150
150
150
151
150
150
152
155
154
153
153
152
154
155
155
155
152
154
153
154
154
151
150
152
150
151
149
149
150
148
150
151
150
150
152
151
151
151
150
152
149
151
151
149
150
151
149
148
149
151
150
150
151
153
152
155
157
159
162
165
170
173
173
176
176
175
172
167
160
154
147
139
134
125
122
119
121
120
122
125
128
131
136
139
141
142
145
148
147
150
150
153
155
155
155
155
157
154
157
157
156
158
159
159
159
157
158
160
161
160
160
159
160
159
161
161
162
160
161
160
160
160
161
162
163
162
162
163
163
164
164
165
164
165
164
166
166
165
165
166
168
168
170
169
168
170
168
171
170
170
170
169
168
169
169
172
174
173
174
173
173
173
173
173
172
174
174
175
174
173
174
174
171
172
171
171
170
167
167
168
167
167
166
165
164
162
162
160
159
159
159
158
156
154
155
154
154
153
153
152
150
150
152
148
146
148
148
150
148
148
148
147
148
151
148
146
146
145
146
146
147
145
147
147
147
146
145
145
146
147
148
149
149
147
147
148
147
149
148
147
148
147
149
147
148
148
148
148
148
148
146
147
148
150
151
151
151
151
151
152
150
149
149
147
149
150
151
151
150
150
148
148
148
148
149
147
147
148
152
149
148
148
150
150
150
149
148
149
150
149
148
149
149
151
150
148
150
148
149
151
151
150
150
153
152
154
151
152
155
155
154
153
154
156
154
152
151
149
149
151
152
151
151
150
151
149
150
150
147
147
148
147
147
147
148
148
149
150
150
149
151
150
151
150
150
148
149
147
150
150
151
152
155
156
160
163
167
168
170
170
167
166
161
153
147
139
134
128
123
120
118
119
119
121
122
125
127
132
135
138
142
146
147
150
151
150
150
151
151
152
152
153
151
153
151
155
155
156
155
157
156
156
159
158
156
157
156
158
156
156
158
158
158
159
161
160
161
160
160
159
160
159
160
161
162
163
162
163
162
163
162
162
161
163
165
164
166
165
165
166
164
167
168
166
168
167
167
169
167
167
168
167
170
169
170
169
169
170
167
168
170
170
170
171
169
168
168
167
169
170
168
167
167
166
165
165
165
164
162
160
160
159
160
159
157
155
154
154
156
154
153
152
149
150
151
152
150
147
147
147
146
146
149
147
147
145
146
144
147
145
146
143
145
145
146
144
144
144
147
144
143
145
145
146
146
145
146
145
147
146
147
145
146
147
146
145
146
145
148
148
148
148
149
148
146
147
146
147
146
146
147
148
149
148
148
146
148
147
146
149
148
147
148
147
148
146
147
148
146
145
145
147
147
146
147
147
146
146
149
148
147
148
149
149
147
147
146
147
147
147
147
147
145
147
146
147
148
149
150
151
152
151
149
150
153
153
152
150
148
149
148
148
148
148
146
146
146
145
146
147
146
145
146
148
146
144
146
145
145
146
146
148
147
147
146
146
146
145
148
147
147
147
147
147
149
152
154
154
156
160
165
168
171
169
166
162
156
149
142
136
130
125
119
115
112
111
112
115
118
120
123
127
130
134
137
138
144
144
147
146
149
150
150
152
153
152
152
152
153
151
152
154
153
153
154
157
156
156
155
155
156
156
156
157
158
158
158
157
158
158
159
159
161
160
161
160
160
160
160
161
163
161
161
161
160
161
161
162
161
163
162
163
164
165
164
167
167
165
165
164
165
166
167
167
168
166
168
169
170
171
171
170
170
168
168
170
169
169
169
168
168
169
166
168
166
166
166
164
164
163
163
162
163
163
162
159
159
155
154
155
153
153
152
152
152
151
150
151
149
150
149
148
147
148
145
146
146
142
145
146
144
143
143
144
145
145
143
143
143
145
143
143
143
143
144
145
146
145
146
144
144
146
144
145
146
144
144
145
145
147
145
147
145
146
147
147
146
147
145
145
146
147
147
146
146
147
147
146
147
145
145
144
146
146
144
146
146
145
144
144
148
147
149
146
148
147
148
147
147
147
147
147
146
146
145
146
146
145
147
144
146
148
147
145
145
146
144
146
147
143
147
147
147
146
147
147
146
146
147
147
144
147
147
146
146
147
147
149
150
151
150
152
151
150
148
151
152
151
150
150
147
148
147
147
147
145
146
147
146
145
146
146
145
145
146
147
147
145
144
145
147
146
148
147
145
146
144
147
148
147
148
148
150
150
149
152
152
156
161
165
168
169
172
171
171
168
163
155
149
142
133
127
123
118
118
116
118
119
121
122
128
130
135
136
140
143
146
145
147
151
148
149
151
152
151
152
153
151
152
153
153
153
155
154
154
156
156
155
156
155
155
158
158
158
158
156
157
157
157
158
159
160
160
159
158
159
160
161
161
162
161
162
164
163
162
163
163
164
162
164
165
164
165
165
167
168
166
165
166
168
167
170
167
168
169
171
171
170
168
171
171
171
171
173
171
170
171
171
169
169
170
168
169
169
168
168
167
167
168
166
166
165
163
163
161
162
161
161
159
160
158
157
157
155
158
156
154
153
152
151
151
150
151
147
149
149
147
146
148
145
145
147
148
146
147
146
145
147
146
146
146
146
145
148
145
146
146
149
147
145
145
147
148
146
145
147
149
146
144
146
148
146
150
147
148
147
146
146
148
147
148
147
146
147
147
146
146
147
149
147
145
148
147
146
147
148
145
147
147
148
147
148
148
148
150
148
147
147
146
146
149
147
147
148
147
146
148
148
149
147
148
148
147
146
147
146
148
147
147
146
146
148
146
148
147
146
147
146
147
147
146
146
148
148
148
147
147
148
148
147
148
148
150
149
150
151
153
151
153
155
154
154
154
152
152
150
150
151
150
149
148
147
147
146
148
147
148
148
146
146
147
147
146
149
148
146
147
146
145
149
148
147
147
149
146
147
147
148
147
148
150
150
151
154
156
161
165
170
174
176
176
174
173
168
162
155
147
139
131
124
118
116
116
118
121
124
125
128
130
135
139
142
143
146
146
147
148
151
151
152
154
153
154
152
153
154
155
155
156
155
157
157
157
159
156
157
157
158
158
158
159
158
159
159
160
158
160
159
159
160
162
163
161
162
159
160
162
162
164
163
161
163
164
167
166
164
166
166
165
168
167
168
168
170
169
170
168
168
169
168
168
170
171
173
173
171
173
174
173
174
173
173
171
172
173
172
172
172
171
170
169
169
168
169
168
170
168
166
164
163
166
165
165
163
162
162
162
161
157
156
155
156
157
154
153
153
153
153
150
152
151
149
151
149
150
149
149
147
148
147
147
146
147
148
148
146
146
148
149
147
146
145
147
149
148
148
150
150
149
147
148
149
149
149
150
148
150
150
151
148
148
149
149
150
148
148
150
147
150
149
151
150
148
148
150
148
149
149
149
149
150
146
148
148
149
152
150
150
150
149
150
149
149
149
150
147
150
149
148
149
149
148
149
150
151
151
148
149
150
150
150
148
149
150
149
149
149
147
150
151
149
147
150
150
150
149
151
152
151
150
149
150
151
150
150
151
151
150
151
151
154
154
155
155
156
155
155
155
156
156
155
154
153
153
153
152
151
150
151
150
149
149
149
150
149
150
151
148
151
151
151
149
149
150
152
151
151
149
151
149
151
151
150
150
151
149
151
151
152
155
153
158
161
162
168
173
175
176
178
176
172
166
159
151
143
136
128
121
118
116
116
116
119
122
126
130
133
137
138
143
147
149
148
150
152
153
151
152
154
155
155
156
155
155
154
156
159
159
158
157
159
159
161
161
160
160
161
161
161
162
161
161
161
163
163
165
163
163
163
163
165
167
164
165
165
165
165
167
167
167
168
168
169
167
169
168
169
169
168
170
171
173
171
171
172
175
171
171
174
174
175
175
175
176
177
177
175
175
174
174
175
175
174
173
176
175
175
174
176
172
172
173
171
170
170
169
168
169
168
168
167
166
164
165
163
162
161
161
159
159
160
156
155
155
154
154
154
151
151
151
149
151
150
151
151
149
149
149
151
149
148
149
149
147
149
148
147
149
149
149
150
150
150
147
150
150
150
149
151
150
149
150
149
150
151
148
150
149
148
150
151
149
151
151
149
150
152
151
150
152
152
150
151
151
148
151
150
148
151
150
151
152
149
148
149
150
149
147
150
150
150
149
151
150
151
148
149
150
150
150
150
150
150
150
151
151
152
151
151
149
150
152
151
151
151
150
150
151
150
151
151
150
149
150
150
151
152
151
150
152
151
150
150
152
152
152
153
153
153
156
156
155
155
155
157
157
154
153
155
156
154
151
152
152
149
149
150
151
149
149
148
149
151
148
149
151
149
150
151
149
149
149
150
149
149
148
148
150
148
147
151
150
150
151
153
155
156
159
161
165
172
175
176
176
176
172
169
164
156
148
140
133
124
117
115
115
117
118
123
123
128
131
135
139
143
145
147
149
149
150
153
151
153
155
156
154
156
156
158
159
158
156
158
159
158
157
160
160
159
158
161
159
160
161
161
163
162
161
162
164
162
162
163
162
161
165
166
165
163
164
166
167
166
166
165
166
166
167
166
168
169
168
170
170
170
170
170
170
172
172
171
171
170
173
173
174
175
177
175
175
175
177
176
177
174
176
176
174
173
172
173
174
174
171
172
173
171
170
171
171
170
168
168
168
166
166
165
163
163
164
162
160
160
157
158
156
155
155
153
153
152
152
152
150
153
149
147
146
147
148
145
146
148
148
147
148
150
147
146
147
147
147
145
147
147
147
149
148
149
148
147
147
149
148
147
148
147
149
149
149
149
147
149
150
149
147
148
149
149
148
148
149
148
147
147
148
147
147
147
149
149
148
148
148
147
148
150
147
148
150
149
148
149
148
146
145
147
150
149
147
147
147
148
146
148
149
148
147
147
148
147
149
150
148
149
146
146
148
149
149
148
148
147
147
147
148
149
149
148
149
148
149
150
149
150
148
148
148
148
150
148
148
149
151
152
152
152
154
155
154
153
156
155
156
154
153
151
152
149
151
151
149
147
149
148
148
148
148
148
150
148
148
149
148
149
149
150
147
147
148
147
147
148
146
147
148
148
148
148
149
149
148
149
152
152
154
156
161
164
169
174
174
176
177
174
168
162
156
147
141
133
126
117
114
114
114
117
120
122
124
128
132
137
140
141
144
147
148
149
150
149
151
154
153
153
156
154
154
152
155
156
156
157
156
157
158
158
157
160
159
158
158
158
157
159
161
161
160
162
162
161
162
163
164
163
162
163
163
164
161
164
164
165
167
167
167
167
165
166
167
167
167
166
168
170
169
169
170
172
173
172
172
171
171
173
173
175
174
175
175
175
175
175
175
173
174
175
174
175
173
172
172
172
173
173
173
170
170
170
170
168
168
167
167
167
165
164
163
163
162
161
161
159
157
158
157
155
155
154
154
150
151
152
150
150
149
150
149
148
147
146
149
148
147
148
147
148
145
146
148
148
146
148
148
148
146
148
148
148
149
149
147
148
147
147
146
147
149
147
148
149
145
148
149
150
148
149
150
147
150
149
149
151
148
150
149
149
151
148
148
150
149
148
148
148
148
148
150
148
146
149
147
148
148
149
148
148
147
146
149
147
145
147
146
148
148
148
146
148
147
147
146
148
148
147
147
147
146
148
148
147
150
149
147
148
149
148
149
149
149
151
148
146
149
148
148
150
149
150
149
149
151
150
150
153
153
154
152
156
154
153
153
154
152
152
152
152
150
147
148
150
147
147
148
147
146
148
146
147
147
147
146
148
149
147
148
149
149
151
149
147
146
148
148
145
147
147
146
149
147
149
149
149
154
156
161
163
168
175
175
175
174
173
168
161
152
145
137
130
119
116
115
114
111
114
118
121
126
127
133
137
140
140
147
146
147
150
147
150
150
150
151
151
155
154
154
154
155
155
155
156
155
156
157
158
157
158
158
158
158
158
161
160
158
159
161
162
159
159
159
163
160
160
162
164
162
162
165
164
163
163
165
163
165
167
168
167
167
167
167
168
167
168
169
169
169
171
170
169
173
171
170
170
173
173
174
173
174
174
175
176
172
173
170
174
174
172
173
170
171
172
171
171
169
171
170
169
167
167
167
166
165
164
163
163
161
159
160
160
158
157
157
153
156
154
155
155
152
151
150
148
149
149
149
148
148
147
146
144
145
145
144
145
146
145
145
146
146
147
146
145
145
146
147
145
145
147
145
147
145
146
146
145
147
146
147
147
147
145
147
148
147
148
147
146
148
147
150
147
147
147
147
148
147
149
148
147
148
147
148
149
147
147
147
147
145
148
147
145
148
146
147
146
147
145
147
148
147
148
148
146
146
148
146
146
147
147
150
148
145
148
147
147
146
148
147
146
146
147
148
148
148
148
147
148
148
147
147
147
149
150
149
149
147
150
150
147
147
148
151
151
150
152
153
151
154
154
156
153
154
151
153
154
156
154
151
152
150
149
147
149
149
149
147
149
149
149
147
149
149
151
150
146
146
146
146
148
150
149
148
148
146
145
147
146
146
148
149
148
150
150
152
156
157
161
166
169
172
174
177
177
172
168
160
154
146
140
130
122
116
113
115
114
117
119
122
126
131
136
138
140
143
144
147
148
150
152
149
150
152
153
154
152
153
155
156
155
154
154
155
156
159
159
157
157
158
159
159
159
161
161
160
160
159
160
160
161
160
162
163
162
164
162
161
164
164
164
167
163
165
165
168
167
164
165
169
168
167
167
167
168
171
171
171
169
170
171
171
173
173
173
172
172
174
173
173
174
172
174
174
174
176
174
176
176
173
174
174
172
171
173
171
168
169
170
169
167
168
165
165
167
166
164
164
163
161
159
161
160
157
158
156
155
154
151
154
153
150
150
151
149
149
149
148
147
147
149
148
148
146
146
147
147
146
148
148
146
147
147
147
149
147
147
149
147
147
148
150
148
148
146
148
147
148
147
148
148
150
150
149
149
148
147
147
150
150
149
151
150
147
148
151
151
149
149
151
150
148
149
149
151
152
149
149
149
150
149
149
148
151
149
148
147
151
150
148
148
149
148
147
149
148
148
148
149
149
150
149
149
148
147
148
151
149
149
148
149
150
149
150
151
150
148
149
150
151
149
151
151
150
151
152
151
151
151
153
149
151
152
152
150
152
152
152
155
155
155
155
153
154
156
155
158
157
155
155
155
155
155
153
154
153
151
151
151
149
146
148
149
149
150
149
150
149
149
150
149
148
150
150
148
149
148
150
146
149
148
148
150
149
150
151
150
151
155
156
158
162
163
168
172
176
178
179
177
174
168
161
153
146
135
128
122
115
114
116
117
118
122
125
129
134
136
141
143
147
149
149
149
151
151
152
153
153
154
153
155
155
155
155
157
157
156
159
158
156
158
159
159
159
159
161
159
161
161
159
160
159
159
160
161
161
162
165
163
163
165
165
163
165
166
166
166
166
167
167
166
166
166
167
169
169
167
169
171
171
170
171
172
170
172
172
170
172
173
175
175
175
175
175
174
174
174
173
174
176
174
175
174
175
174
174
174
173
173
172
173
171
170
169
169
168
166
166
165
165
164
164
162
161
160
159
159
157
159
157
154
155
154
152
150
152
151
148
151
149
149
148
147
148
146
148
148
147
147
148
145
148
147
146
147
145
146
147
146
146
147
148
148
148
149
147
146
148
148
147
150
148
148
149
148
147
148
148
148
149
149
150
149
147
148
150
148
147
147
149
146
146
148
146
148
150
147
146
150
149
146
147
148
150
150
146
149
149
150
148
148
151
149
148
148
147
149
147
147
148
147
148
151
148
147
147
150
148
148
148
147
148
148
147
149
148
147
148
148
149
150
147
149
150
151
150
149
149
148
151
148
150
148
148
149
148
150
150
151
152
153
153
154
154
152
155
152
154
156
153
155
154
156
155
155
155
155
154
151
151
151
150
150
149
150
148
149
147
149
148
150
149
148
149
149
148
150
147
147
147
148
149
146
148
147
148
149
148
150
149
147
150
150
151
154
157
160
166
168
174
175
177
178
177
172
165
157
152
142
132
127
120
117
116
114
115
118
122
125
128
135
137
140
143
144
146
147
150
149
150
152
151
153
152
154
153
154
156
156
155
155
156
159
156
158
159
156
159
156
159
159
160
160
162
159
161
160
163
160
162
163
160
163
162
164
163
163
165
163
164
165
163
164
165
165
166
166
167
167
168
167
167
170
171
169
170
173
172
172
171
173
172
173
173
174
174
173
175
176
173
175
176
175
175
176
176
175
175
176
174
174
173
172
172
170
171
170
168
171
168
169
168
165
167
168
165
164
164
161
160
158
159
158
155
155
154
154
154
153
152
152
151
150
149
147
148
149
149
151
149
148
148
147
146
147
148
147
147
147
146
146
149
148
147
148
148
147
147
148
147
146
149
147
148
149
147
148
148
148
148
150
150
149
146
149
147
147
149
149
148
147
149
147
148
148
149
149
148
149
149
148
150
147
150
149
149
148
149
149
149
150
150
152
147
150
149
147
149
149
151
147
151
148
147
148
150
148
151
150
148
148
148
149
147
149
149
151
149
149
148
149
148
150
149
151
150
150
152
151
150
151
151
150
151
151
152
149
151
152
151
153
152
151
153
152
154
153
155
155
157
156
156
154
157
157
157
159
157
157
157
154
156
154
155
154
152
153
150
150
149
150
152
151
151
150
149
150
150
151
150
150
150
152
148
150
150
153
151
151
152
149
152
150
151
152
152
153
153
155
157
157
163
167
172
177
178
180
180
177
175
167
161
153
144
138
127
123
118
117
117
120
122
126
130
131
138
138
142
146
147
148
150
150
150
153
154
153
157
155
157
156
156
157
158
157
160
159
159
160
160
160
161
162
161
162
161
163
163
163
163
163
163
164
163
164
164
165
167
166
166
167
163
166
167
166
166
167
170
170
169
169
171
171
169
168
170
171
172
172
172
174
173
174
173
174
174
173
175
176
178
176
177
179
178
176
178
177
180
176
179
178
178
176
177
177
176
174
175
175
174
174
171
171
170
170
170
171
168
168
165
166
168
164
163
163
161
161
158
156
156
157
156
155
156
153
152
151
151
152
150
150
149
150
148
148
149
148
150
149
148
146
149
146
148
148
149
148
147
148
146
149
148
149
149
149
147
148
148
148
149
150
150
147
147
150
149
149
149
150
150
149
151
150
150
150
152
150
149
151
150
149
149
148
148
148
150
149
148
150
150
149
148
149
152
149
149
146
150
149
149
151
150
148
150
148
150
149
147
148
148
149
146
148
149
148
149
150
148
151
149
148
149
147
146
149
148
149
148
148
149
148
148
151
150
149
149
150
151
149
149
150
152
149
152
152
150
151
151
151
151
150
154
154
153
154
156
154
157
156
156
157
156
154
155
154
152
152
151
150
151
150
150
150
149
150
150
148
150
150
147
149
149
149
148
147
149
148
149
148
147
149
149
148
148
148
148
148
149
150
149
149
151
152
155
156
162
167
170
173
177
178
179
177
171
166
157
151
142
133
125
120
116
114
115
117
119
123
126
130
136
139
142
142
144
148
148
150
151
151
153
153
153
153
155
154
155
156
155
157
158
156
157
158
158
160
159
159
159
160
158
159
160
160
161
160
161
164
163
164
162
164
164
163
164
164
165
165
165
164
166
165
167
167
169
168
166
168
169
169
167
170
169
170
172
171
171
172
172
171
173
175
175
174
175
177
176
176
176
177
175
177
177
176
176
174
176
175
175
173
175
175
174
172
170
172
170
170
169
171
168
167
167
167
166
164
165
161
160
159
160
157
160
157
155
155
155
153
152
153
151
150
148
149
148
149
146
148
148
147
147
147
145
147
148
148
148
148
148
146
148
146
146
148
147
147
148
147
145
148
148
149
147
148
147
146
148
147
148
149
147
149
148
147
147
149
148
148
147
149
147
148
149
150
150
149
150
148
146
151
146
147
148
147
148
149
150
149
150
150
148
150
148
148
149
148
149
149
147
150
149
147
148
149
147
148
150
149
149
151
150
149
149
148
148
148
148
148
148
149
147
149
150
148
149
151
150
147
149
150
150
151
152
150
150
149
151
151
150
151
152
151
148
150
152
153
152
152
154
155
154
153
153
156
155
156
155
154
154
156
154
153
154
153
153
154
152
150
149
150
151
151
152
151
151
151
149
149
149
150
150
150
151
151
148
148
149
149
149
147
148
149
146
148
149
149
149
150
151
150
153
156
159
164
169
174
176
177
180
179
174
170
163
155
147
138
127
121
117
116
116
116
118
123
127
130
134
136
140
147
146
146
148
150
150
152
153
153
153
155
153
157
156
158
158
158
155
160
157
158
160
160
159
161
160
160
158
161
161
162
163
162
163
163
161
164
163
163
163
161
164
165
164
164
165
166
165
167
165
165
167
168
169
168
171
170
169
170
171
170
170
170
172
172
173
173
174
175
175
175
176
175
176
175
176
176
177
177
177
179
176
175
176
176
175
175
174
175
174
173
171
170
171
174
170
171
169
169
166
165
164
166
164
162
160
162
159
160
157
160
159
156
155
155
153
153
152
151
153
151
151
149
148
148
147
150
147
148
146
146
145
148
147
145
145
148
147
147
147
146
146
147
148
147
149
149
147
147
150
150
149
151
149
148
149
148
147
147
147
146
148
146
147
147
148
150
149
149
149
148
149
150
147
148
148
150
150
149
148
147
149
149
150
149
148
148
148
149
147
147
149
150
148
147
147
148
149
149
149
147
148
149
148
148
147
148
147
146
147
149
148
147
149
147
148
147
150
148
148
146
147
148
148
148
150
148
148
148
149
149
150
151
150
148
148
149
149
150
151
152
153
150
150
150
152
153
154
155
155
155
154
156
154
155
156
157
156
156
155
155
153
152
153
152
152
152
148
148
150
150
150
149
149
149
150
150
149
150
149
150
150
149
148
149
150
150
150
149
148
149
149
149
149
149
150
150
150
151
155
155
160
164
168
172
175
179
180
179
176
171
166
158
149
140
132
123
118
115
116
117
118
121
125
128
133
137
141
143
145
147
147
149
150
150
151
153
154
154
154
153
155
156
156
156
156
154
157
159
157
157
159
159
160
161
159
159
163
161
161
162
160
162
161
163
164
164
162
165
164
165
161
163
166
165
165
166
167
164
167
168
167
167
168
170
170
169
170
171
171
170
172
174
173
173
174
174
176
174
176
177
175
175
175
177
178
177
175
177
175
177
177
176
178
177
175
175
176
174
173
173
171
173
172
170
171
169
165
166
166
166
165
163
162
161
159
159
158
157
157
156
153
153
155
152
151
150
150
150
148
147
148
147
147
147
148
147
145
144
144
147
147
145
145
146
146
147
146
147
147
146
146
147
147
146
148
149
147
145
149
150
148
148
146
147
150
148
148
148
147
147
148
148
146
149
149
148
147
146
147
148
147
147
147
148
147
148
148
148
148
147
148
148
150
147
149
148
147
147
148
149
147
148
147
148
149
148
147
149
148
147
148
148
148
147
148
146
149
149
147
149
148
147
150
147
147
146
146
147
149
146
148
149
147
147
146
148
150
145
146
149
150
147
147
149
149
148
151
149
151
150
149
147
149
151
150
151
148
149
151
151
151
153
153
153
153
154
154
152
155
156
156
153
154
154
154
152
154
152
151
151
149
149
150
149
148
149
149
149
150
149
146
146
148
149
150
149
149
149
146
148
147
148
146
145
148
147
147
148
148
149
151
151
151
153
154
160
164
167
174
177
178
179
177
175
169
161
154
144
138
126
119
116
115
115
116
119
122
125
127
133
137
139
142
145
147
148
148
150
150
152
152
153
152
152
154
153
155
155
155
154
157
157
157
158
159
159
160
159
160
157
160
158
160
159
160
162
163
162
161
163
162
163
162
165
162
162
166
165
166
164
165
166
166
167
166
166
166
168
170
171
170
168
170
171
171
171
172
173
172
172
173
175
173
177
177
175
176
174
175
178
176
177
176
176
177
177
174
176
175
175
175
174
173
174
174
171
172
170
169
169
167
167
168
165
165
165
163
160
160
159
160
158
158
156
155
154
154
154
153
151
149
149
151
150
150
148
149
148
148
147
146
146
148
146
148
146
145
149
147
148
147
146
145
144
146
148
149
148
147
145
147
147
148
145
147
148
149
148
148
145
147
150
148
147
148
149
147
147
148
148
149
148
148
150
149
150
149
148
147
149
150
149
149
147
150
150
149
148
147
148
148
147
148
148
148
149
147
149
148
148
148
148
150
148
148
148
148
148
149
147
148
147
147
147
148
150
149
146
146
148
149
149
147
146
148
150
150
149
149
147
149
146
150
150
149
149
150
151
151
149
149
150
150
150
149
150
150
149
151
150
150
149
148
149
150
150
151
151
152
152
151
152
151
152
153
155
154
155
155
155
156
158
156
155
155
154
155
154
152
152
151
151
149
151
149
149
148
149
150
151
149
148
151
151
149
149
149
150
150
150
150
150
148
149
148
149
148
149
150
149
150
147
149
151
152
154
156
160
164
168
173
177
180
179
176
175
170
161
154
147
139
130
124
119
116
116
117
119
120
126
129
134
137
141
142
144
148
147
149
151
152
150
153
153
154
154
152
156
154
156
156
157
156
155
158
159
158
159
159
159
161
160
160
161
161
159
159
160
161
161
162
163
164
163
162
165
165
165
166
166
165
164
166
166
168
168
166
168
168
169
167
168
167
169
171
169
171
170
172
174
174
175
175
172
174
172
174
174
178
178
177
175
176
175
176
176
177
177
175
175
176
175
174
173
172
173
175
171
171
170
170
171
169
168
165
165
165
165
163
161
160
161
161
159
157
156
156
154
153
155
152
150
151
152
149
150
150
146
147
147
147
146
146
144
147
145
145
146
146
145
146
145
147
147
145
145
147
146
144
145
148
145
146
147
147
147
147
148
147
146
148
147
146
144
146
146
149
147
147
147
148
147
146
149
149
147
147
149
150
150
147
148
147
147
148
145
146
146
146
147
148
147
147
147
146
147
149
149
147
147
148
148
148
149
147
147
147
146
146
149
149
148
147
147
146
147
148
146
145
144
145
146
146
147
146
147
147
148
147
147
148
147
146
147
147
146
144
147
147
147
147
148
149
149
147
147
148
148
150
149
147
149
149
149
149
150
150
148
147
150
151
151
152
152
152
152
151
152
153
153
156
157
154
153
155
153
153
153
154
152
152
151
147
148
150
148
148
149
150
148
147
148
148
148
148
148
147
150
148
148
149
147
146
148
146
147
146
143
147
146
149
148
147
151
151
152
153
158
161
165
171
172
177
177
179
177
171
167
160
152
142
134
127
121
117
117
116
118
121
124
125
129
134
138
140
143
143
147
146
149
150
151
152
153
153
154
154
154
156
154
156
156
158
156
157
157
156
158
157
158
157
157
158
159
161
159
160
160
160
159
161
162
161
160
161
164
162
163
161
164
163
163
166
166
163
165
165
165
164
168
165
168
167
167
166
169
171
168
169
170
171
172
173
175
175
175
175
175
174
172
174
176
175
176
175
175
174
175
172
174
176
176
173
174
172
173
173
170
170
171
172
170
168
166
165
164
166
164
163
162
160
161
158
158
159
157
157
155
155
153
154
152
151
151
150
150
150
146
146
147
148
145
147
146
145
146
144
144
146
145
145
145
145
145
146
146
144
145
147
145
146
146
146
147
147
147
146
148
146
147
147
147
148
148
150
149
146
147
148
147
145
148
147
147
148
149
147
147
149
146
148
150
148
147
148
148
149
148
149
149
148
148
147
147
148
147
148
149
149
148
146
149
149
149
148
147
147
148
147
147
148
149
147
149
148
149
149
149
149
148
147
147
147
148
148
149
148
148
148
148
147
148
148
148
146
147
148
148
146
147
147
147
147
147
147
148
149
147
147
148
148
149
150
150
149
149
148
149
149
150
151
151
149
149
150
150
151
148
149
150
149
151
149
153
153
152
152
154
155
157
156
155
157
155
155
156
156
152
153
154
154
152
151
152
150
148
148
150
149
147
147
148
149
149
147
148
148
148
147
148
149
148
146
148
149
148
149
148
148
148
148
148
151
151
151
153
156
161
164
166
172
175
178
179
179
176
171
162
155
147
142
131
122
118
115
116
117
117
119
122
128
133
137
139
140
146
145
145
149
150
150
150
153
151
153
153
152
153
155
156
155
154
155
159
157
157
159
157
160
159
159
160
158
158
159
162
159
159
160
161
162
159
161
162
164
163
162
164
163
163
164
163
163
164
164
165
167
167
166
168
169
168
167
169
169
170
170
169
171
171
171
173
172
171
171
171
174
174
174
175
175
175
177
176
174
174
175
174
175
173
172
174
174
175
173
172
172
172
171
173
171
169
168
168
167
164
164
164
164
161
163
163
159
157
157
155
157
156
154
153
151
151
152
151
149
151
149
149
149
148
147
147
145
145
146
147
145
146
144
144
146
145
146
148
146
144
145
144
147
146
145
146
146
146
146
145
148
147
145
145
147
146
147
148
148
149
148
147
146
147
147
148
149
149
148
148
146
148
148
145
147
149
148
151
148
149
148
149
147
149
146
148
149
150
148
147
149
148
149
148
148
147
148
149
148
148
149
148
148
148
150
149
148
148
149
149
149
148
148
150
148
148
148
150
149
148
149
150
149
149
150
150
149
148
149
149
151
151
149
150
150
151
152
152
151
152
151
151
152
150
148
151
152
151
152
153
151
151
151
151
153
152
151
152
150
152
152
151
152
153
155
156
156
155
156
156
157
157
158
158
157
157
156
156
158
158
156
155
155
155
155
152
152
151
152
153
151
151
151
151
151
151
152
152
153
149
150
152
151
153
153
152
152
152
151
148
151
152
151
151
153
151
153
154
155
157
163
166
171
175
179
182
182
181
179
172
164
156
150
141
132
125
121
118
117
119
120
123
127
132
136
138
141
144
148
147
148
150
152
152
152
154
155
155
155
157
157
158
156
158
158
158
159
160
158
157
158
160
159
159
158
158
159
162
161
160
160
161
161
160
163
165
161
165
166
163
162
164
164
164
165
164
164
164
166
166
166
167
167
168
166
168
169
167
169
169
170
168
170
170
172
173
170
172
175
174
175
174
173
174
175
174
176
175
173
176
175
175
175
174
174
175
173
172
171
172
170
170
169
168
167
167
166
167
167
164
164
163
161
161
161
158
157
158
154
154
152
151
150
154
150
151
150
147
146
147
146
145
145
146
143
143
144
144
144
143
143
143
144
144
142
142
141
144
144
144
145
146
143
143
145
143
145
146
146
146
143
145
144
144
146
145
144
146
147
144
143
147
146
148
148
147
146
145
145
147
147
146
148
148
146
145
147
146
146
145
145
147
147
146
147
147
145
145
146
144
145
148
145
145
146
147
147
146
145
147
145
145
146
145
146
145
145
146
144
145
146
145
146
148
145
147
145
145
145
145
143
146
144
147
146
146
147
147
147
144
145
148
146
145
146
147
146
146
146
146
145
146
147
146
147
147
146
146
148
147
147
148
149
148
146
147
147
147
148
147
151
149
150
152
149
152
152
153
152
154
155
152
153
152
151
153
152
150
151
149
150
151
149
149
148
149
147
146
148
145
146
147
147
146
148
147
147
148
146
146
146
146
146
147
146
147
147
146
145
147
147
147
148
151
149
151
155
154
160
166
169
175
176
177
175
175
168
162
154
146
139
131
122
115
113
113
114
116
119
122
125
129
132
137
138
142
144
144
146
146
146
150
148
149
151
152
152
151
152
153
153
155
154
155
154
154
154
157
156
156
158
158
157
156
158
158
159
159
159
160
160
160
161
162
162
163
163
162
162
161
163
161
163
163
164
166
164
164
164
167
166
167
168
168
167
167
171
170
170
169
172
173
173
172
172
176
175
176
178
174
174
174
175
174
174
175
175
175
176
175
175
173
174
174
172
173
172
173
172
170
171
170
169
166
167
167
163
163
163
161
162
161
159
157
156
155
155
154
154
153
154
153
153
150
149
147
148
148
148
147
145
145
144
147
145
145
144
142
145
145
145
147
145
145
145
146
147
145
144
146
146
145
147
147
146
146
147
148
148
148
149
145
146
147
145
148
148
147
149
149
147
148
149
147
148
148
147
148
148
146
148
151
149
149
148
147
149
148
149
147
147
148
146
146
147
148
149
148
147
147
149
147
147
148
147
147
149
149
148
149
146
148
148
148
147
147
149
146
146
146
146
148
147
147
147
147
147
147
148
148
149
150
149
147
148
150
149
150
148
149
147
148
144
147
146
148
148
149
150
151
149
147
150
149
151
150
150
147
149
149
150
149
151
153
153
153
150
152
154
153
154
153
154
155
154
153
154
153
153
153
153
151
149
149
150
150
150
148
148
147
148
147
149
149
149
146
148
149
147
149
149
149
148
146
146
147
147
148
147
147
146
147
148
149
149
150
152
154
158
161
167
172
174
178
178
179
175
169
163
156
147
140
132
124
117
113
115
115
115
119
122
126
132
135
138
140
142
146
147
149
149
148
151
151
151
151
154
154
152
153
155
155
155
155
157
156
157
157
156
154
157
158
159
158
157
158
158
160
160
161
161
159
162
162
162
161
162
161
162
164
164
162
164
165
165
164
165
168
166
166
168
167
168
167
169
170
171
172
171
173
172
172
170
173
174
175
175
174
174
175
175
177
176
175
173
175
177
177
175
174
177
176
175
172
174
175
172
172
171
171
170
170
169
168
167
167
167
165
165
163
164
162
159
160
158
158
155
156
154
152
152
151
152
151
152
150
151
149
148
147
148
148
148
147
146
145
146
146
146
146
143
146
144
142
147
145
144
147
146
146
145
146
146
145
146
147
146
146
146
147
145
147
148
149
149
148
148
148
147
147
147
150
149
148
148
146
149
149
149
148
149
148
148
147
148
147
149
151
148
148
146
145
148
148
149
148
149
148
146
148
147
148
148
150
148
147
147
148
148
148
147
148
148
149
148
147
148
148
148
149
149
149
147
149
148
148
149
149
148
147
145
147
148
149
149
148
148
151
150
148
148
149
149
151
149
148
150
150
150
149
152
153
153
155
154
154
155
154
154
155
155
153
153
156
155
154
154
155
152
152
152
150
150
149
149
149
149
149
149
149
149
148
148
149
150
148
146
148
147
146
147
149
149
149
148
147
148
148
145
148
149
151
150
149
151
154
159
162
164
170
175
177
180
179
178
171
165
158
150
142
135
124
118
115
113
115
117
120
121
126
129
133
139
140
143
144
146
148
146
151
151
151
152
154
152
154
154
156
157
156
155
156
157
156
158
158
158
158
160
158
157
161
161
159
161
160
160
162
161
165
165
163
162
163
163
161
164
165
163
164
166
164
165
166
167
166
166
170
169
168
166
168
171
170
170
170
172
172
171
171
175
175
176
174
176
175
175
178
177
176
177
177
179
177
177
178
178
176
176
176
174
175
174
174
174
174
174
174
173
173
170
169
167
167
167
166
165
164
162
159
159
159
159
158
157
155
154
154
153
152
152
153
151
151
148
149
148
149
148
148
144
146
147
146
146
145
147
147
147
146
145
146
145
146
146
145
147
148
146
145
147
147
148
147
145
145
148
146
147
145
148
147
146
148
148
149
150
148
147
149
147
148
146
147
147
145
148
149
147
147
148
148
148
147
146
147
148
147
148
144
147
145
146
147
148
147
148
149
146
148
148
150
147
149
147
147
148
148
149
148
148
147
146
145
148
148
148
147
150
148
148
147
148
149
149
148
147
147
147
150
148
151
150
149
150
149
150
148
148
151
151
152
154
154
152
154
154
154
155
154
155
155
155
153
151
153
153
151
148
150
148
148
148
149
147
148
147
147
147
146
145
148
149
149
149
149
147
146
150
149
147
147
149
147
147
147
147
148
149
148
150
151
152
153
159
164
167
171
175
177
177
178
175
170
165
157
148
139
130
120
116
114
115
115
116
118
124
127
132
136
140
140
145
146
147
146
148
149
151
150
152
154
154
153
153
154
156
156
156
158
157
157
157
157
157
158
160
159
161
159
160
159
159
160
161
162
162
161
162
162
162
162
164
164
163
164
166
166
167
165
166
166
168
167
166
165
167
168
167
168
169
170
171
172
173
173
176
172
174
172
173
175
177
175
176
176
176
177
176
175
176
176
176
176
175
176
175
173
176
175
177
173
173
172
173
172
172
172
171
169
169
167
165
164
164
164
161
161
159
159
159
157
155
156
157
155
153
153
152
153
150
148
151
149
147
148
147
148
146
148
146
145
147
148
148
148
148
146
149
146
147
148
145
146
147
148
147
148
148
145
147
145
146
149
147
147
149
149
148
148
150
149
148
150
150
147
150
149
149
147
148
146
149
147
147
149
148
148
148
149
148
148
147
150
151
149
148
149
149
149
148
147
149
148
147
148
145
148
148
148
148
149
149
148
147
150
150
149
150
150
150
150
151
149
147
149
148
149
149
149
150
150
150
148
149
151
152
154
152
153
153
155
156
157
155
155
155
155
154
155
156
156
155
151
150
152
151
148
151
151
150
148
148
149
149
148
148
148
149
150
148
148
148
148
148
149
151
147
149
149
149
149
149
148
149
150
147
151
151
151
152
155
160
162
168
171
172
176
179
180
178
173
165
156
149
143
134
126
121
118
116
115
117
120
121
126
130
133
139
143
144
146
148
148
150
151
152
153
152
153
155
154
155
158
156
155
157
158
157
157
160
159
158
157
160
160
160
160
161
160
161
163
161
163
161
161
163
163
163
163
163
164
164
165
166
165
167
165
166
167
169
167
169
168
168
168
170
168
169
172
170
169
173
171
171
173
176
174
174
174
175
175
177
174
176
177
177
178
178
176
175
177
175
178
178
175
176
175
174
172
175
174
174
172
170
170
171
168
167
169
165
166
164
163
162
161
161
158
158
158
156
156
154
154
154
152
152
152
150
150
147
148
147
147
149
146
145
147
147
147
146
148
145
147
146
146
146
147
146
146
146
147
148
145
146
148
149
148
146
149
146
146
147
146
147
148
148
147
145
147
147
148
147
148
148
148
147
148
148
147
147
148
148
149
147
148
150
148
147
150
150
148
147
145
147
148
148
148
149
149
148
146
146
146
148
146
147
147
146
147
145
145
146
147
147
148
146
150
149
149
148
148
148
146
147
148
147
148
148
148
148
149
150
149
147
153
153
152
155
155
153
153
152
152
152
153
154
151
151
151
151
150
150
148
146
148
147
144
146
149
147
150
149
148
147
145
147
146
147
147
149
148
147
147
147
146
146
148
144
148
146
145
147
150
148
152
154
153
158
162
164
172
174
176
178
176
174
168
159
152
147
138
128
118
116
113
111
115
116
118
122
126
132
134
137
139
143
144
146
148
148
150
151
150
151
152
153
153
153
152
153
155
156
155
156
155
154
156
157
157
156
159
159
161
160
160
160
158
158
159
159
161
159
160
163
162
161
163
164
162
162
163
162
162
165
166
164
167
166
166
166
167
169
170
169
167
170
171
169
170
170
170
173
172
173
174
172
174
174
174
176
176
176
173
174
175
176
177
176
176
174
173
174
174
171
172
174
173
173
172
171
168
169
169
168
168
165
162
162
162
163
161
159
158
156
156
154
156
154
152
150
150
151
148
148
147
148
149
150
146
144
145
145
144
145
145
147
146
143
144
145
144
146
147
144
145
146
144
144
146
146
146
147
147
146
145
146
146
147
146
146
147
148
147
146
147
147
147
146
148
147
147
148
147
145
148
147
148
148
146
147
149
147
147
150
147
148
148
149
149
148
147
147
149
148
146
146
145
146
147
148
147
146
148
147
145
147
148
148
147
147
147
148
147
148
149
146
150
150
147
149
149
148
148
149
147
150
151
149
150
152
153
153
152
152
155
154
153
153
153
154
155
152
150
152
151
151
150
149
148
149
147
146
146
148
147
150
150
150
145
146
146
148
146
147
148
146
146
146
147
146
148
148
147
147
145
146
148
148
147
151
151
153
158
160
165
168
172
175
179
176
173
171
164
157
149
144
133
124
119
117
113
113
116
119
121
125
129
134
137
140
143
144
145
147
147
150
149
151
152
152
154
155
152
152
155
154
154
155
157
155
158
156
157
159
157
160
159
159
158
160
160
160
160
160
159
161
163
161
159
161
162
164
164
163
163
164
164
164
164
163
166
166
167
166
167
166
168
171
169
169
170
170
171
172
171
172
172
172
173
173
175
175
175
175
177
176
174
176
174
177
176
175
176
175
176
174
176
174
172
175
174
172
174
172
169
171
170
170
167
166
164
165
163
162
163
163
160
159
156
153
156
153
154
154
153
151
149
152
151
150
150
151
147
147
147
147
146
145
148
146
145
147
144
146
147
144
145
147
146
147
146
147
146
147
147
147
147
146
147
147
146
147
147
147
148
148
146
147
147
147
147
147
149
147
148
147
148
148
149
147
150
150
148
147
147
147
146
148
148
148
146
148
148
146
147
148
147
150
149
148
149
148
147
150
148
148
149
148
148
148
151
150
146
147
147
148
147
149
148
148
149
146
148
149
147
148
149
148
148
146
147
148
148
149
150
149
152
151
153
153
152
154
155
156
154
154
154
154
153
154
155
156
153
153
154
152
151
151
150
147
149
149
148
147
149
149
148
147
149
149
147
148
148
147
147
150
148
147
148
146
147
148
147
147
146
146
148
148
149
151
153
152
153
157
160
165
167
173
177
178
179
178
173
168
159
152
145
137
128
120
116
116
114
116
118
123
125
130
134
137
140
145
143
147
149
146
148
151
150
153
152
153
155
154
155
155
154
154
156
158
159
157
157
159
159
159
158
158
159
159
160
158
160
161
162
163
162
163
162
163
162
162
165
165
165
164
166
163
167
165
165
167
167
167
170
169
169
169
169
169
170
172
171
170
171
174
172
173
173
174
173
174
175
176
176
177
177
178
178
178
177
177
177
177
178
175
176
175
173
175
174
174
173
170
171
171
169
172
170
167
169
168
165
165
164
161
161
160
160
160
157
156
155
154
155
152
152
152
150
149
149
148
149
148
147
146
147
146
145
148
145
147
145
146
147
145
146
146
147
148
146
148
147
145
146
147
147
147
147
145
145
148
148
147
146
148
148
148
147
147
149
148
148
148
148
148
147
146
148
145
149
148
147
149
147
147
148
147
149
149
148
146
149
146
149
148
147
149
147
147
147
147
146
147
146
148
147
146
146
147
147
146
148
147
148
148
146
148
146
149
146
147
147
148
147
148
147
148
150
148
150
148
149
148
148
148
150
150
150
150
151
149
150
150
150
152
152
153
152
153
155
155
154
155
154
155
155
154
153
154
154
153
151
148
149
148
148
150
148
150
150
148
148
147
146
147
149
148
148
149
145
149
146
148
147
148
146
148
146
145
148
146
146
147
148
147
148
150
149
152
152
156
162
166
167
174
177
179
179
177
174
168
159
150
142
132
123
118
116
115
115
115
117
122
127
132
136
136
140
143
145
146
147
147
149
150
150
151
151
151
152
154
155
153
152
155
153
154
158
159
158
156
158
156
157
160
160
161
159
160
160
159
159
162
161
162
161
162
162
163
161
164
163
164
163
164
167
163
165
164
166
167
167
168
168
167
168
169
170
169
172
169
171
173
172
172
175
173
175
175
175
174
177
177
176
176
178
176
173
178
175
175
177
177
176
176
174
175
172
172
174
174
171
171
170
170
166
167
167
164
166
164
164
162
162
160
159
157
158
157
155
154
153
151
152
152
150
150
148
148
148
147
149
147
147
147
144
143
146
145
146
148
147
145
146
147
144
145
145
145
145
144
145
147
147
145
145
146
148
145
147
148
147
147
147
148
149
148
147
150
147
147
147
147
148
147
147
147
146
147
148
147
147
147
146
147
146
145
147
147
146
145
148
147
147
147
148
147
147
148
149
146
146
147
148
149
147
147
147
146
148
148
146
147
147
147
148
149
147
147
148
148
148
147
148
147
146
148
149
148
147
149
149
147
147
150
149
149
150
149
147
149
148
147
149
152
148
149
151
151
151
151
153
154
154
153
155
155
154
153
157
154
156
154
154
153
153
151
153
152
148
150
149
147
148
147
149
147
149
147
147
148
148
148
148
146
148
150
148
147
148
148
147
148
146
149
148
146
147
147
147
151
152
152
154
156
158
163
168
171
175
180
180
178
176
172
164
155
149
140
129
123
117
115
114
117
119
122
127
127
131
138
139
142
144
146
146
145
149
149
151
153
152
153
153
154
154
154
158
158
158
157
157
156
157
158
157
157
158
160
158
159
162
161
161
160
163
162
162
162
162
161
164
163
164
163
163
165
165
165
164
165
166
165
163
166
168
167
168
169
171
169
170
171
172
172
172
174
174
174
174
173
174
174
177
177
176
176
176
176
177
177
177
178
178
176
176
176
175
177
176
176
176
174
174
172
172
171
174
172
170
169
168
167
167
163
163
165
161
160
162
160
160
159
157
156
155
154
151
152
152
151
148
148
150
149
147
147
150
149
147
147
148
148
147
147
146
146
147
146
148
147
146
146
146
148
149
149
147
148
147
147
147
148
149
149
149
148
149
148
147
147
149
148
148
150
147
147
149
150
147
148
149
149
148
150
146
148
148
150
149
148
150
148
147
147
149
149
147
148
148
148
148
148
149
148
147
149
148
147
147
148
147
147
148
150
150
148
147
147
148
146
148
149
147
146
148
148
147
147
148
149
150
148
147
147
148
150
150
149
147
148
150
148
149
149
151
151
151
148
150
149
150
151
149
149
151
151
150
149
152
153
153
155
155
154
153
154
155
155
156
155
155
154
155
155
153
154
152
152
152
152
149
148
148
150
150
151
149
148
148
148
150
148
148
148
148
148
148
147
148
148
146
150
150
147
148
146
149
149
147
149
150
149
153
154
157
160
165
168
173
176
179
177
177
174
165
158
152
143
133
127
121
117
116
117
119
121
122
126
131
135
140
141
144
145
149
148
149
152
152
151
153
154
153
153
156
155
157
158
156
157
157
157
158
157
161
159
161
158
159
160
161
160
161
161
162
162
160
161
163
163
164
165
165
161
165
164
164
165
167
166
166
165
165
166
168
166
168
168
169
168
167
170
170
168
171
173
171
171
170
172
174
174
174
175
175
175
175
176
176
176
177
178
177
173
172
175
175
174
173
174
173
176
175
171
170
169
169
171
168
167
166
166
166
164
166
163
160
159
160
159
157
158
155
155
155
153
154
151
151
149
150
150
149
147
146
147
146
148
147
147
146
144
145
144
144
144
145
146
142
145
146
145
145
145
146
147
144
146
144
144
146
144
147
148
147
146
146
146
146
149
147
147
147
149
147
147
147
146
147
146
144
148
146
145
148
147
144
148
144
146
145
147
145
146
147
145
147
145
144
146
145
147
147
147
147
146
145
146
146
145
146
145
147
145
146
146
145
146
147
145
145
147
146
144
144
145
146
144
146
148
144
145
147
145
146
148
145
145
147
146
148
149
147
148
148
147
146
148
146
148
147
149
149
146
148
150
148
151
152
152
151
151
153
152
153
155
153
152
153
152
152
152
153
151
150
152
151
150
147
148
145
146
148
147
148
148
146
148
147
145
148
148
145
147
146
146
147
147
145
146
146
145
146
146
145
146
149
147
147
150
153
153
156
162
166
170
173
176
174
174
172
168
161
154
147
138
130
122
116
115
113
116
117
119
123
124
130
135
138
140
142
145
144
145
147
150
151
148
148
149
152
153
153
152
151
153
153
154
156
155
155
156
156
157
155
156
157
158
156
156
158
159
157
160
158
159
161
161
160
160
161
162
161
162
163
161
161
165
163
163
162
165
165
164
164
164
167
167
165
166
166
168
170
170
171
170
170
169
168
172
171
172
173
173
174
174
173
175
175
173
175
176
175
172
173
173
172
171
172
171
171
171
172
168
169
169
168
166
164
165
162
163
163
161
160
160
158
157
154
157
156
155
153
151
152
151
148
149
147
147
146
146
147
147
144
146
147
145
144
144
146
144
145
144
146
145
145
145
145
144
143
146
147
144
145
145
145
143
144
147
145
145
144
146
146
145
146
147
146
149
148
146
146
146
145
145
148
150
145
147
148
146
147
149
146
149
148
148
147
146
148
149
147
149
146
148
149
149
146
148
149
146
146
148
145
146
145
148
147
147
147
147
147
147
146
146
148
148
146
147
146
145
147
148
147
146
149
147
146
146
147
147
148
147
147
146
147
147
147
147
149
147
150
149
148
147
147
149
149
149
148
149
149
148
148
149
149
149
150
152
153
151
152
154
154
153
153
155
152
153
154
154
153
155
153
151
151
150
149
148
149
148
148
149
147
147
145
149
148
146
148
146
147
148
147
147
149
150
147
147
148
146
147
147
147
148
147
148
149
150
149
149
152
155
157
164
166
171
175
176
178
176
176
170
164
156
148
140
132
124
118
115
114
116
116
118
122
126
132
135
137
140
144
146
147
146
148
148
150
150
152
153
153
151
155
154
154
153
156
156
155
157
156
156
156
155
158
158
159
158
159
157
160
159
162
161
159
161
161
162
161
161
162
162
162
163
164
165
163
166
165
164
166
164
168
165
166
165
168
170
170
170
170
173
173
169
172
172
171
172
175
172
174
175
174
174
176
177
177
176
176
176
175
175
177
175
175
176
174
173
175
174
172
171
173
173
171
168
169
170
168
167
167
163
164
163
163
162
160
159
157
157
156
158
155
155
155
152
152
152
151
149
148
151
149
147
148
147
147
147
147
148
148
145
146
147
145
148
147
146
146
147
144
146
148
147
146
147
149
149
149
147
147
147
148
148
147
150
148
148
147
145
145
149
149
149
147
149
149
150
147
148
150
150
151
148
148
149
148
149
148
148
149
148
148
147
148
149
148
147
150
148
148
147
150
147
149
148
149
146
146
147
147
147
150
151
149
149
146
147
148
149
149
148
148
150
149
148
146
147
148
150
150
147
149
149
147
147
148
148
148
148
150
149
147
149
150
149
151
149
149
151
149
150
150
149
149
151
152
150
150
150
151
153
150
149
151
149
148
149
151
153
154
155
154
155
153
154
156
157
156
156
155
155
156
155
153
153
153
154
153
153
151
150
151
151
150
150
150
151
150
149
150
149
149
150
150
148
150
151
150
147
149
148
147
148
149
149
149
148
149
148
149
149
152
152
154
157
160
165
170
172
176
179
181
179
174
170
161
151
143
137
128
123
119
116
116
118
120
123
126
130
134
136
141
145
146
149
150
150
151
149
151
151
153
155
154
152
155
157
155
156
153
155
156
156
158
159
159
156
158
160
160
159
160
162
161
160
160
162
161
162
163
162
162
163
163
164
164
164
165
163
164
165
164
164
167
169
168
168
166
169
167
167
170
171
172
171
170
171
171
173
174
172
173
175
173
173
174
172
174
175
176
175
174
174
174
174
178
175
175
177
175
173
172
172
172
173
171
169
168
170
168
169
168
167
165
165
168
163
161
163
162
159
157
157
155
156
155
154
152
154
155
151
151
151
151
150
147
148
148
147
147
147
146
148
146
147
148
148
146
146
146
147
147
146
147
147
145
148
148
147
146
145
147
147
146
146
145
149
148
147
150
149
147
148
149
149
148
148
147
146
147
147
149
147
147
150
150
147
149
150
148
149
149
148
149
149
147
147
147
149
149
148
149
148
148
147
149
148
146
149
147
146
149
149
146
147
148
149
149
146
147
147
147
149
147
146
147
147
148
147
148
149
148
146
147
149
148
146
147
148
149
150
148
148
149
146
148
147
148
147
149
148
147
147
147
148
149
149
150
148
148
149
150
149
149
150
151
151
150
149
151
152
150
152
153
155
155
156
155
154
155
157
156
155
156
158
156
157
154
157
155
152
153
153
150
150
151
151
149
147
149
149
147
150
150
149
151
149
148
149
147
149
149
152
150
150
150
149
148
150
150
150
151
150
150
152
150
151
155
157
161
166
169
173
177
177
178
179
176
169
162
152
146
137
127
122
116
115
114
116
118
122
125
130
135
136
140
143
144
145
150
148
151
151
152
154
153
154
155
155
154
156
154
156
155
156
156
158
157
159
160
158
160
160
160
161
160
160
161
161
161
164
162
163
163
164
163
163
162
165
165
164
166
168
166
167
167
168
168
168
167
171
170
170
170
170
169
172
171
173
172
171
171
172
172
175
174
174
175
174
176
176
174
174
178
177
176
176
176
178
177
177
177
177
176
175
176
176
174
172
170
172
171
170
171
170
168
169
166
167
168
163
164
164
162
160
160
159
158
158
158
157
155
154
156
154
151
150
150
150
149
150
151
148
146
148
147
148
148
149
149
147
148
147
147
147
147
149
146
149
149
146
148
148
148
147
149
149
149
146
148
148
148
149
150
149
149
150
148
148
151
151
151
150
149
149
150
150
152
149
151
150
148
149
149
149
148
149
150
149
149
147
149
150
149
148
149
147
149
147
149
148
147
150
151
148
149
147
148
149
149
148
149
148
149
147
148
149
149
149
149
150
148
147
147
149
150
149
149
148
148
148
147
148
147
151
149
148
150
148
147
149
149
146
149
147
149
148
147
150
150
150
148
150
149
149
149
150
152
152
151
152
154
150
153
153
152
155
155
155
154
155
154
154
155
154
155
154
156
154
152
152
152
150
150
148
149
148
148
149
148
151
152
150
149
150
149
148
148
148
149
151
146
150
149
149
148
148
148
148
146
148
148
148
149
151
152
153
156
161
166
169
174
178
179
179
178
173
167
161
153
145
136
128
119
114
114
116
115
116
120
124
128
134
135
138
143
145
146
149
148
149
150
151
153
154
153
156
154
155
155
155
156
157
158
156
156
157
157
157
156
157
160
159
158
159
158
160
161
159
161
162
161
162
162
162
164
164
165
164
164
164
167
165
165
163
167
167
166
165
168
168
169
170
173
169
170
171
169
169
171
172
171
173
171
172
172
174
173
174
176
174
175
174
176
173
176
177
176
176
176
178
175
175
174
175
171
173
173
173
171
170
169
167
169
168
167
164
164
166
164
163
162
161
159
157
156
157
154
156
155
153
152
152
148
150
150
151
148
149
148
145
148
146
148
145
147
148
145
145
146
145
145
147
146
146
145
147
146
146
147
150
146
145
146
148
147
146
146
147
146
147
148
147
147
149
148
147
149
146
147
148
145
145
147
149
146
148
147
147
147
146
146
147
148
147
149
147
147
147
148
148
147
147
148
148
147
148
147
148
149
150
150
148
147
147
146
146
147
147
147
148
146
147
148
146
146
148
146
147
147
148
147
148
148
146
148
148
146
148
148
148
149
148
152
148
148
151
149
149
149
150
150
152
148
148
151
152
152
151
153
151
154
153
154
155
156
154
154
153
153
155
152
154
156
154
155
153
156
154
153
151
151
151
148
148
148
148
150
149
148
149
148
149
147
150
148
150
150
148
149
149
146
147
149
148
147
147
148
148
148
147
148
150
152
152
153
156
160
163
168
172
177
179
179
177
174
169
160
153
145
135
129
120
115
113
112
115
120
120
123
128
132
135
138
142
149
147
147
150
148
150
152
151
151
153
153
153
154
154
156
157
158
157
156
159
159
157
159
159
159
158
159
159
159
160
160
160
162
162
162
162
160
161
162
165
166
163
163
165
164
163
165
164
166
164
167
167
166
166
168
169
170
169
170
170
169
169
171
171
172
173
173
173
174
175
174
174
174
176
177
176
173
177
177
176
176
177
177
175
175
175
173
174
176
175
174
173
173
170
171
171
170
169
167
167
166
165
165
165
165
162
164
161
158
160
156
157
157
154
156
154
154
153
150
152
151
150
150
148
149
148
148
149
148
147
150
148
148
149
148
148
149
148
146
148
148
147
148
149
148
150
148
148
149
147
148
150
147
148
151
148
148
149
148
147
149
149
148
148
147
149
149
147
149
150
148
148
149
148
148
151
149
150
149
147
149
148
148
148
150
150
147
147
149
148
149
148
150
149
148
148
150
148
149
150
150
148
148
147
148
147
149
148
149
147
149
149
148
149
150
148
151
150
151
149
150
149
151
150
149
151
151
150
151
150
151
150
154
153
153
153
154
155
153
156
157
156
155
157
155
154
154
154
154
152
154
150
150
148
150
151
150
148
149
148
149
148
147
150
148
147
149
148
149
148
148
148
148
149
149
149
147
146
148
146
148
150
148
149
150
150
151
154
156
162
165
172
174
176
178
179
179
171
166
158
151
142
135
124
118
114
114
116
116
119
121
125
130
136
137
140
142
144
146
146
150
150
149
149
152
153
154
154
156
157
157
157
156
157
160
159
157
159
160
160
159
159
160
160
161
160
159
163
161
161
163
162
162
163
163
163
162
166
163
163
165
165
166
168
166
168
167
169
168
166
168
170
167
168
171
169
172
172
172
173
171
173
176
173
175
175
177
176
178
177
175
176
179
179
178
177
175
177
175
176
176
176
174
177
176
173
174
176
172
171
173
170
171
171
168
170
168
164
165
166
163
161
162
162
159
160
158
155
156
154
154
152
154
152
151
150
149
148
149
148
149
148
148
147
147
146
147
148
146
148
148
147
147
148
147
147
148
149
148
146
146
146
147
147
146
148
147
148
149
148
149
150
149
149
148
149
148
149
147
148
148
147
148
147
148
148
148
149
147
149
148
148
150
149
148
151
148
150
150
148
147
148
148
147
148
149
149
151
147
147
147
146
149
149
147
148
147
147
151
149
149
149
147
148
149
147
150
149
149
149
148
150
150
148
151
151
150
152
152
153
155
153
153
155
154
155
154
153
151
153
152
153
152
154
154
152
152
151
150
149
148
150
148
147
148
147
147
149
147
147
147
148
150
148
147
149
148
150
149
148
146
147
147
148
148
149
148
150
147
147
151
151
153
157
161
166
171
175
176
178
178
176
170
163
157
146
137
131
122
117
112
115
114
116
119
124
128
131
136
138
138
143
146
147
147
148
149
151
153
152
152
153
153
153
156
156
153
155
155
155
156
158
157
158
158
157
159
160
159
164
160
161
160
160
161
160
162
161
163
160
160
161
162
165
164
165
165
163
165
166
166
165
164
167
166
168
166
168
170
168
172
172
173
172
172
174
171
171
174
174
174
175
174
174
173
174
177
176
174
176
176
175
175
175
176
176
174
174
173
174
172
171
174
174
173
170
170
171
169
168
168
165
163
162
159
160
159
159
157
159
157
156
156
154
153
154
151
152
150
150
149
147
148
148
148
148
147
144
147
146
146
147
147
146
148
146
146
146
145
147
148
146
147
147
147
146
146
145
147
148
147
147
147
147
147
150
148
150
148
149
148
147
146
146
149
148
149
148
146
147
147
145
148
146
147
147
149
148
148
150
150
148
147
147
145
145
148
146
148
148
147
148
148
147
148
147
147
148
148
146
146
147
147
147
148
149
147
149
149
147
149
150
149
147
148
147
149
149
150
152
152
152
152
153
153
156
154
153
153
154
156
152
153
152
150
150
151
150
147
149
151
148
147
147
149
146
148
148
145
145
146
146
147
147
148
148
148
147
146
147
147
149
145
148
147
148
147
145
148
148
150
149
149
152
154
157
164
169
173
176
177
179
176
172
168
160
152
144
135
125
120
116
114
116
116
117
120
125
128
131
137
141
142
144
144
145
147
150
149
149
152
152
153
154
152
151
154
154
155
153
154
155
154
156
156
159
155
155
156
158
158
159
159
159
160
159
158
159
160
163
162
161
162
160
161
160
162
163
162
163
165
163
165
166
166
165
164
167
168
166
169
168
169
170
167
170
170
171
172
172
172
175
173
175
175
175
175
174
176
174
176
174
175
175
175
175
175
171
172
174
173
172
169
171
170
169
170
170
168
167
166
164
162
164
162
159
161
159
158
157
158
155
157
154
152
154
153
150
151
148
151
150
147
146
147
145
145
146
145
146
146
145
146
145
143
144
144
143
144
144
145
144
143
145
144
144
144
145
145
147
145
144
148
146
146
148
145
145
147
146
144
148
147
146
147
148
147
148
147
146
147
148
148
145
147
147
147
148
147
146
148
146
146
148
146
147
146
147
146
146
145
148
146
147
147
147
150
148
147
146
147
149
148
147
147
145
147
148
149
148
148
147
147
148
145
149
150
148
151
150
151
153
154
151
153
154
152
155
154
152
151
152
151
150
152
151
148
148
149
149
148
149
147
146
146
147
146
147
148
146
148
146
146
145
147
147
145
144
146
145
146
146
145
145
146
146
147
150
148
149
151
154
155
158
166
171
174
177
177
177
175
171
166
154
147
138
131
121
117
115
112
111
113
115
119
123
128
132
135
139
142
144
144
147
148
149
149
148
150
151
152
149
155
153
155
156
156
153
154
156
156
155
157
158
157
158
156
158
158
160
160
159
160
160
160
161
163
162
161
162
162
160
162
163
164
161
165
165
164
165
167
164
165
165
168
169
167
170
170
169
168
171
169
168
172
172
171
173
173
174
174
175
173
176
174
174
176
178
175
176
176
175
174
173
175
174
174
176
174
172
174
172
171
171
169
168
168
168
168
168
163
162
162
161
160
158
156
155
155
156
156
153
153
151
151
151
149
148
149
148
145
144
145
146
143
143
144
144
142
143
147
143
143
144
145
146
143
144
144
146
144
146
147
145
144
145
144
144
145
146
146
144
145
145
145
146
146
147
147
146
148
146
145
146
147
146
146
144
147
146
145
144
144
147
148
147
146
148
147
145
147
148
147
148
146
145
144
146
145
148
147
146
147
146
144
147
145
148
147
148
147
148
146
147
145
147
146
148
149
150
148
148
148
150
146
149
148
148
150
150
150
151
152
150
153
152
152
153
154
153
152
154
153
152
150
151
152
149
149
149
149
147
145
146
148
148
147
148
147
146
147
146
147
145
145
148
146
146
147
147
147
148
145
146
147
145
144
145
147
148
148
150
149
152
154
158
163
169
171
176
178
180
177
174
169
160
153
145
135
127
120
115
112
113
113
116
120
124
127
132
136
140
142
144
146
146
148
149
152
150
151
150
152
151
151
153
154
153
153
154
154
155
156
156
157
158
157
157
160
160
158
156
159
160
159
161
160
161
161
160
161
162
160
163
161
162
163
163
162
163
163
163
166
165
165
166
169
167
167
169
169
170
170
169
172
172
171
170
172
170
174
173
175
176
175
176
176
175
174
176
175
175
176
176
176
174
174
174
174
174
174
175
174
172
171
170
172
171
169
169
167
167
167
165
163
163
162
159
159
157
156
158
157
156
152
154
154
151
149
150
150
149
148
148
148
146
145
144
147
146
143
144
146
146
146
146
147
145
144
144
145
145
145
148
147
147
146
146
145
146
148
146
148
148
148
147
148
148
146
145
148
149
147
149
149
148
147
149
148
149
147
148
146
146
147
149
147
147
146
147
147
147
149
145
147
148
149
148
149
147
148
148
149
148
148
147
149
147
147
148
149
147
149
147
147
147
148
146
148
149
148
148
148
148
148
148
147
147
149
150
148
148
148
149
148
150
151
151
152
153
151
152
153
152
154
154
153
155
154
153
153
152
154
153
150
150
151
148
148
150
150
147
146
148
149
146
145
146
148
147
146
148
147
145
147
146
144
145
146
145
147
147
146
147
147
148
148
147
147
149
150
150
153
156
157
163
167
172
176
178
179
178
174
169
162
153
147
137
127
119
117
113
112
117
117
122
125
129
132
136
139
142
146
146
145
148
150
150
149
149
150
152
152
152
153
155
152
154
154
157
156
156
156
157
156
157
158
158
157
159
160
158
157
159
160
161
161
161
161
162
161
161
162
160
162
164
164
164
165
165
163
166
165
164
168
166
167
168
168
168
169
171
172
170
172
172
172
173
173
173
171
173
174
173
172
173
175
175
175
174
176
175
175
176
177
175
176
177
173
175
172
173
171
173
171
169
168
169
166
168
166
166
164
164
161
161
161
158
160
156
155
154
155
152
154
151
151
148
150
149
148
147
147
147
147
147
144
146
145
144
145
146
145
146
146
146
146
145
145
147
147
145
147
147
144
144
145
148
146
145
148
147
147
146
144
144
147
147
147
146
146
147
147
147
146
148
146
147
147
146
147
148
148
147
147
148
146
149
146
146
147
147
146
147
148
147
148
148
148
147
148
148
147
147
147
149
147
147
149
147
146
147
148
147
148
147
148
147
145
146
147
146
145
145
147
145
147
147
148
148
148
150
151
147
147
149
149
148
147
149
149
151
149
147
150
151
151
151
150
151
153
152
153
153
155
156
155
156
154
154
155
155
155
153
153
153
154
152
151
153
149
148
148
150
147
147
150
147
149
147
148
147
147
147
149
147
149
147
147
147
148
147
146
148
149
146
148
147
147
148
149
152
152
151
156
158
160
165
171
174
175
180
181
181
175
170
162
152
147
135
125
119
115
115
117
117
119
122
128
131
136
138
141
144
149
146
149
149
149
150
152
152
152
154
154
155
155
156
156
155
157
156
157
157
160
158
158
158
160
159
162
159
159
161
163
159
161
163
164
163
162
162
164
163
165
164
165
164
163
166
167
164
167
167
169
167
167
169
168
171
172
171
171
172
173
173
174
173
174
175
175
174
176
175
174
177
176
177
179
177
177
178
175
177
175
177
177
177
176
175
176
175
174
174
173
173
171
169
170
170
171
168
169
168
165
164
164
164
162
163
162
160
158
156
158
155
154
155
153
154
152
150
151
150
149
149
148
150
148
145
149
147
147
147
145
147
146
144
147
146
148
148
148
148
149
147
147
148
147
148
148
146
147
147
147
150
148
148
150
149
148
149
148
150
149
150
149
148
146
149
150
151
149
152
151
150
149
148
150
149
149
150
151
148
147
148
149
148
149
150
149
148
150
149
148
148
151
150
152
150
147
151
149
149
149
150
148
148
150
151
148
148
150
149
148
149
147
147
148
146
148
150
149
148
148
149
148
150
149
150
150
151
149
150
151
149
149
150
151
150
151
151
151
151
150
152
151
155
156
153
156
155
156
156
155
155
153
153
155
155
156
156
153
152
153
151
149
149
150
149
148
151
149
148
150
148
148
150
149
148
150
149
149
150
149
151
149
147
149
148
147
149
149
147
147
148
149
149
149
151
152
152
157
159
163
168
174
177
180
183
183
178
172
166
157
149
142
134
125
121
117
116
120
122
126
126
130
135
139
138
144
144
148
147
151
152
153
152
151
154
155
155
154
154
155
155
156
156
155
157
159
159
159
159
158
161
160
159
159
159
160
160
159
160
163
163
163
162
163
162
162
163
165
165
164
165
165
165
166
167
167
168
168
168
169
168
168
170
172
171
171
173
172
170
173
172
173
174
174
176
174
174
176
175
177
178
179
178
175
175
176
178
178
178
175
175
176
174
178
174
175
176
176
172
171
171
170
171
169
169
167
167
165
163
163
164
161
159
160
159
157
156
156
154
154
154
153
152
151
151
148
150
150
148
150
147
145
147
147
147
145
148
148
147
146
147
145
146
147
145
145
147
147
146
147
148
148
148
147
148
148
147
146
146
147
148
148
147
148
148
147
146
150
148
147
147
147
148
148
150
148
149
148
149
149
149
148
147
148
149
149
150
149
147
148
148
150
149
148
148
147
147
148
149
147
149
148
148
147
147
148
148
149
151
150
148
147
150
150
147
149
151
151
150
149
150
146
148
150
149
149
147
149
148
150
147
150
150
148
147
148
150
148
150
150
151
149
149
148
150
151
151
150
151
151
150
150
151
152
154
155
154
156
155
153
155
155
154
156
156
157
156
153
152
152
153
154
152
153
150
148
149
150
149
150
150
152
148
148
149
147
148
149
149
150
148
147
148
149
149
149
151
149
148
148
150
148
150
148
151
151
151
152
154
156
160
163
171
175
177
178
180
180
177
172
165
159
151
142
133
126
123
120
118
119
121
122
127
129
134
136
140
141
143
147
146
149
149
152
151
153
153
152
154
154
154
154
156
157
158
158
155
159
157
157
158
158
157
157
158
158
160
160
159
159
160
159
160
160
162
160
161
162
162
163
162
163
164
166
163
164
165
164
165
167
167
166
167
166
167
166
168
169
169
171
170
171
171
175
172
172
172
173
174
175
176
174
174
174
175
175
176
176
174
176
177
173
175
175
176
174
173
172
173
172
172
170
170
170
168
168
166
167
166
164
163
162
162
163
161
158
156
157
155
155
157
153
152
151
152
151
149
150
149
148
147
146
146
146
146
147
145
145
146
146
144
144
144
146
145
143
144
145
146
144
146
144
145
147
147
147
147
149
147
145
147
145
146
147
149
148
148
148
148
149
148
148
147
148
149
148
148
147
149
147
148
148
148
150
150
148
147
147
148
148
148
147
147
147
147
147
147
148
149
148
146
148
149
150
150
147
149
147
149
147
149
148
148
148
146
148
149
147
147
145
148
148
147
147
148
148
148
146
147
148
148
147
148
147
147
149
147
149
150
151
151
149
151
148
147
149
147
150
149
148
148
149
149
149
149
150
153
152
153
153
152
154
154
154
153
155
153
154
153
153
154
156
152
151
149
149
151
150
151
148
147
147
147
148
148
146
147
149
150
147
147
146
148
149
147
147
147
148
147
148
148
149
149
146
147
148
149
149
150
152
155
157
160
164
171
175
179
179
181
180
176
167
160
152
144
137
129
121
119
116
117
119
121
124
127
132
135
138
140
143
144
145
148
149
149
151
150
149
152
153
152
154
153
155
156
155
155
157
157
156
156
158
157
159
157
158
157
159
160
160
159
158
160
160
161
160
161
164
162
161
161
160
162
163
164
163
162
164
165
165
165
167
167
167
167
169
168
171
169
170
170
171
169
172
172
172
173
173
173
175
172
174
176
176
175
176
176
176
175
175
176
177
178
177
175
177
174
175
174
174
174
173
173
173
170
170
169
169
168
167
164
165
163
162
161
162
159
158
158
156
153
154
153
150
154
153
150
151
149
149
147
147
149
148
146
146
146
147
146
145
145
145
148
144
145
143
147
145
144
145
146
144
145
146
145
146
145
146
146
145
146
144
148
148
148
147
148
146
145
146
148
147
148
150
149
148
147
147
148
148
150
147
149
147
148
148
148
147
148
148
149
147
148
148
148
148
146
149
147
147
146
147
146
149
148
146
146
146
146
147
148
147
146
149
148
147
148
148
146
147
149
148
147
150
148
147
145
147
148
147
146
149
148
149
148
146
147
147
147
147
147
147
146
148
148
147
148
150
149
148
147
149
150
148
148
150
151
149
149
150
151
151
151
150
153
152
153
153
155
154
152
155
154
154
154
152
153
153
154
152
153
151
152
150
149
149
148
147
149
149
148
149
151
148
149
149
148
147
147
148
149
147
149
148
148
148
148
147
147
147
144
147
147
148
149
147
149
152
157
160
162
165
171
177
179
179
180
180
172
163
158
149
141
135
128
119
117
119
118
118
121
123
129
131
133
136
140
140
144
146
147
149
149
151
152
152
152
152
155
154
155
155
156
155
155
154
155
156
157
157
154
155
158
158
159
159
157
157
160
160
159
160
161
159
159
160
163
163
161
162
161
164
164
160
164
165
165
165
165
166
166
167
168
168
170
168
168
170
168
169
169
172
173
172
174
175
174
174
175
175
173
176
177
174
178
176
178
177
175
176
174
176
176
175
175
174
174
175
174
173
171
171
170
170
169
170
166
165
165
165
163
161
162
162
159
159
158
158
154
155
155
153
153
150
150
150
149
149
149
147
146
145
146
144
145
145
145
148
147
146
147
147
145
145
145
146
147
147
146
145
146
146
148
147
146
145
146
145
145
147
146
147
147
148
146
146
147
146
147
145
147
147
149
147
147
145
148
148
146
146
148
148
146
148
149
148
146
149
148
147
148
149
149
150
148
148
148
149
147
148
150
148
148
148
149
147
147
150
148
147
148
147
147
147
146
147
146
147
148
146
148
146
148
147
149
149
149
149
147
149
147
150
149
149
150
147
149
146
146
148
148
148
150
147
149
150
148
151
149
150
149
150
149
149
150
149
151
150
151
151
147
152
151
153
154
153
153
155
156
153
152
155
154
155
156
155
153
156
156
153
153
154
151
150
150
148
150
151
150
149
148
148
147
147
150
148
148
149
149
151
149
146
150
149
150
148
149
149
147
149
148
148
149
151
152
151
154
154
159
161
167
171
175
179
180
179
175
174
167
157
151
142
132
126
121
116
117
119
121
122
126
128
132
137
139
142
146
144
149
148
149
150
149
151
152
152
151
153
152
155
155
156
155
157
156
157
158
156
158
160
159
158
159
158
158
159
157
159
159
159
160
159
159
162
162
163
163
162
162
164
164
164
163
163
164
166
165
167
165
168
166
167
167
170
168
169
167
168
171
171
171
172
170
173
170
173
173
174
175
174
174
175
176
177
175
177
177
177
174
175
175
174
174
174
174
174
173
173
173
171
171
171
170
169
169
165
165
166
164
163
163
161
159
157
158
158
156
154
154
153
153
152
153
149
151
148
148
147
148
146
144
146
145
144
146
145
145
144
144
143
143
143
146
145
143
146
145
144
145
145
146
146
143
145
145
146
147
146
146
148
146
146
146
146
146
147
147
146
146
147
144
146
146
148
150
146
146
147
146
147
147
148
147
147
148
150
148
145
147
147
146
148
147
148
146
147
147
146
147
149
147
145
146
147
147
146
147
147
146
146
147
146
147
148
148
146
147
145
144
146
147
145
147
146
146
145
145
145
147
146
146
145
147
146
146
148
147
148
147
147
147
146
145
147
147
147
148
147
148
146
149
151
150
150
148
151
148
149
149
149
150
151
149
150
151
148
150
148
149
153
151
153
154
155
153
153
154
156
154
154
153
155
153
154
153
153
151
150
149
150
149
147
149
147
147
148
146
147
148
148
148
148
148
145
147
148
146
148
147
145
147
148
146
146
146
146
147
147
147
149
151
151
152
158
160
167
172
175
178
178
178
177
174
167
161
148
141
133
124
117
116
115
115
116
120
123
127
131
133
137
142
144
144
145
146
147
148
151
154
153
152
152
153
153
156
156
156
156
156
157
156
156
158
161
158
159
158
157
158
159
158
158
159
160
159
163
161
162
161
161
163
163
162
163
164
163
164
164
163
164
165
165
165
168
167
170
167
167
167
168
170
169
170
171
172
172
171
170
173
173
173
173
174
175
175
172
174
176
174
179
176
177
175
175
176
174
174
175
175
176
175
173
176
173
172
173
171
171
170
169
168
166
165
164
163
163
164
161
161
157
159
157
158
158
157
154
153
148
150
150
151
150
151
149
149
148
147
146
146
147
147
147
147
146
146
147
146
147
148
146
147
145
145
146
146
148
147
146
147
146
147
148
149
148
147
147
148
146
146
147
148
149
148
148
146
147
148
148
150
149
148
147
147
147
148
147
148
149
149
149
148
149
148
148
149
148
149
147
148
149
148
151
149
149
148
150
148
148
148
147
148
149
148
148
148
147
149
147
149
150
150
149
146
147
149
148
147
148
149
149
149
148
147
149
149
147
148
148
149
149
149
148
148
150
147
147
147
149
149
148
149
149
148
149
149
148
149
150
149
150
149
151
151
151
151
152
153
154
154
154
154
154
157
156
157
155
156
156
157
157
158
155
156
154
153
155
152
153
150
151
151
150
149
150
150
150
151
150
149
151
151
150
149
149
151
151
149
148
150
149
150
149
149
150
147
148
148
150
151
150
150
152
153
156
159
163
166
173
178
181
182
182
178
176
167
159
150
144
136
126
120
116
116
116
119
121
124
130
133
136
139
140
146
146
148
150
152
152
151
153
153
155
155
155
154
156
158
157
158
159
159
160
158
158
159
158
159
162
163
159
161
161
161
162
162
161
162
162
163
163
164
163
163
165
165
167
166
165
165
166
168
167
167
166
167
169
168
171
170
171
172
173
171
170
171
172
173
174
176
174
174
175
176
176
176
174
177
178
179
177
178
179
179
179
179
178
180
177
175
176
176
174
175
174
174
174
172
172
172
169
169
170
168
167
167
165
166
163
163
160
161
160
156
156
154
156
156
153
153
153
153
151
150
151
148
148
149
149
147
147
147
147
147
145
149
148
145
148
146
149
150
148
147
146
146
147
148
148
148
147
150
148
147
149
149
148
148
149
149
148
150
150
147
147
149
147
149
148
148
149
148
147
148
149
150
148
149
150
150
151
148
149
147
148
149
149
150
151
150
149
149
148
149
149
149
148
149
148
148
148
147
149
150
151
149
150
151
148
149
150
149
149
152
148
150
151
149
149
149
150
149
150
150
150
150
150
148
150
152
152
151
147
150
151
148
150
151
149
152
151
150
152
153
152
155
156
155
153
154
154
154
156
157
157
156
157
155
156
155
156
155
152
152
150
151
151
150
151
151
149
150
150
150
148
148
150
150
150
149
147
148
147
147
150
149
150
149
150
150
149
147
149
149
149
150
151
151
150
156
160
166
170
172
177
178
177
179
176
168
161
155
145
141
131
123
119
117
116
117
118
121
123
127
131
136
140
140
145
145
147
148
150
149
152
152
153
154
153
154
155
155
154
157
156
155
155
156
155
159
161
158
157
159
159
159
159
159
160
162
160
163
161
161
161
163
161
164
164
161
163
163
165
166
163
164
165
164
165
168
167
167
168
168
167
168
168
169
170
171
173
171
172
174
173
173
173
174
176
175
176
176
176
175
175
176
176
177
176
177
178
177
177
176
176
174
174
174
172
173
174
173
173
173
169
168
170
166
168
168
166
165
163
161
162
161
159
158
157
156
157
156
152
154
151
152
150
149
147
148
148
148
148
147
146
149
145
146
146
146
146
145
147
145
145
146
146
146
145
147
147
146
146
146
146
146
146
148
147
147
146
147
147
146
146
146
149
147
146
147
148
147
147
147
148
146
145
148
146
146
148
150
147
148
148
148
147
147
149
149
150
150
149
148
147
148
147
147
147
148
147
147
148
149
148
148
149
149
147
147
147
149
148
149
148
149
146
148
147
148
149
146
148
148
147
147
150
149
149
150
150
149
149
151
148
150
149
149
149
152
148
149
152
151
151
154
153
153
155
154
152
154
156
154
155
154
152
155
154
156
154
154
150
151
149
149
150
150
149
151
149
148
148
146
149
146
148
149
147
147
146
147
148
148
149
149
148
148
147
147
147
145
148
147
151
150
150
152
153
156
161
166
172
174
175
179
179
176
173
165
157
149
142
133
124
118
116
117
115
118
120
122
125
130
134
137
139
143
144
145
147
147
150
150
150
152
152
151
151
151
151
153
154
154
155
155
152
155
158
156
156
157
157
158
158
158
157
158
159
160
157
160
160
160
162
162
162
159
160
161
161
163
161
162
163
163
163
162
165
164
165
167
167
168
167
167
167
168
169
169
169
170
172
170
171
173
172
175
172
173
173
173
175
175
174
175
175
175
175
173
175
176
175
173
174
173
173
173
173
169
169
171
170
167
167
165
166
166
164
163
163
161
161
160
159
157
157
155
154
153
151
153
152
149
148
151
147
146
147
146
147
146
146
145
146
145
146
145
145
144
145
145
145
144
145
146
145
144
144
144
145
144
147
145
146
146
145
147
147
146
147
146
146
144
145
147
148
146
146
146
147
146
146
146
147
148
146
147
146
146
145
147
147
148
147
147
147
148
148
148
147
148
147
144
146
147
146
147
147
147
147
143
147
147
147
147
149
148
147
145
145
145
146
146
147
149
147
147
145
148
146
148
148
147
147
147
148
148
146
146
145
148
147
147
146
147
148
149
150
149
148
148
148
148
148
148
148
149
151
152
151
152
151
154
152
155
154
154
153
153
152
152
155
152
151
152
149
148
148
149
147
148
147
146
146
147
148
148
147
146
148
148
147
145
145
147
148
147
148
147
146
145
147
147
148
146
147
148
148
152
152
154
158
160
165
169
171
175
177
180
177
174
167
160
153
144
137
130
125
118
113
113
118
118
120
127
130
135
138
140
141
142
146
146
149
149
149
152
152
153
153
153
153
154
155
155
154
154
156
156
157
155
156
156
157
157
156
158
159
160
161
159
158
158
160
159
160
161
163
160
161
160
162
161
164
163
165
165
164
164
163
163
165
165
169
167
167
167
169
168
168
169
170
167
169
169
171
172
172
173
173
174
173
175
176
175
176
176
175
174
175
176
175
175
174
175
176
175
174
174
175
174
172
171
169
168
169
169
170
167
166
165
165
164
163
162
160
161
159
158
156
154
153
153
152
152
151
149
150
150
147
148
149
147
148
146
145
146
146
145
144
146
146
146
145
143
144
145
144
147
145
147
147
146
146
146
145
143
146
148
146
144
147
146
146
147
146
148
147
146
147
145
148
146
147
147
146
147
147
148
147
148
149
148
148
149
148
147
148
146
146
148
148
148
148
147
147
145
146
145
148
147
146
147
145
148
149
147
148
146
146
145
148
149
146
146
148
147
147
145
149
147
147
147
146
149
145
147
146
148
149
149
147
148
147
149
148
148
147
148
149
149
148
146
148
148
149
150
148
149
148
149
150
152
153
153
152
153
154
152
155
154
152
155
153
155
155
152
152
151
151
151
150
150
149
149
148
148
147
149
149
149
149
148
147
148
148
148
147
146
147
147
146
148
147
147
148
148
148
149
149
149
148
148
149
149
150
154
157
161
165
170
174
176
179
179
177
175
168
162
152
143
134
125
120
115
114
115
116
119
121
126
130
133
139
141
144
144
146
149
150
149
152
153
153
152
152
152
151
154
154
153
157
158
156
156
156
157
155
157
159
159
160
159
159
159
160
162
162
160
161
160
161
160
161
161
161
164
164
163
163
163
163
164
165
165
165
164
165
166
168
168
168
168
166
166
167
171
171
173
171
172
172
172
172
175
173
175
173
173
174
172
174
175
176
175
174
174
175
176
176
176
175
174
174
176
172
173
173
175
172
170
170
169
168
167
168
167
164
166
163
161
160
160
157
159
155
157
156
154
153
154
153
150
151
152
150
151
146
147
147
148
144
145
148
147
145
145
145
143
144
145
146
144
144
145
146
146
146
146
148
145
146
146
148
147
147
148
147
148
146
147
146
147
146
149
149
148
147
147
146
147
150
148
150
147
147
147
148
148
150
146
146
148
148
146
149
148
146
146
149
148
147
147
149
146
150
147
150
146
145
148
147
147
149
149
149
148
147
147
147
146
145
147
147
149
144
147
147
147
147
148
149
145
148
147
147
148
149
148
147
148
149
147
148
149
148
148
149
146
149
150
149
149
150
149
150
150
149
151
153
151
152
155
154
155
154
154
157
155
156
155
155
154
152
153
153
151
150
149
148
149
148
149
148
149
148
146
148
149
146
147
149
149
147
148
149
149
147
147
148
148
149
147
147
148
147
147
147
150
149
149
153
155
158
159
164
169
174
178
182
182
178
172
166
160
154
144
134
128
119
117
115
118
120
120
124
126
130
134
137
140
145
145
147
147
148
149
150
150
151
152
152
152
152
154
154
155
155
157
156
157
156
157
158
156
159
159
161
160
159
159
160
162
160
161
162
163
162
163
163
163
164
164
165
163
162
165
165
163
163
166
165
165
167
167
168
170
169
168
170
170
172
171
173
174
175
175
173
174
175
173
175
175
176
176
179
176
176
176
177
178
177
179
179
179
176
175
175
177
175
174
176
173
174
172
171
173
171
170
169
169
167
167
167
165
163
163
160
162
161
160
158
157
156
153
153
153
152
153
152
151
151
149
149
149
146
147
145
147
146
146
146
146
146
146
144
147
145
147
147
147
146
147
147
146
146
147
148
147
147
147
147
147
149
148
147
148
146
148
148
149
147
148
148
149
147
148
147
148
149
149
148
147
147
149
149
150
147
148
149
147
148
148
149
147
147
148
148
149
147
146
148
148
148
151
149
148
150
149
149
145
148
150
150
148
147
150
149
148
146
149
146
146
146
147
147
147
149
150
149
148
148
148
146
147
148
147
148
150
150
149
147
148
148
149
150
150
151
149
150
151
150
148
151
152
150
152
153
153
154
153
154
153
153
153
155
155
154
154
154
153
153
153
151
150
153
152
148
149
147
147
148
149
149
149
146
150
151
151
149
148
148
148
148
148
148
147
148
148
147
148
147
148
148
148
150
151
152
152
154
157
158
164
169
174
178
179
181
179
176
170
163
155
150
139
130
122
119
116
115
119
119
122
125
130
133
138
140
143
144
146
149
150
150
150
151
153
150
153
154
154
156
156
155
157
156
157
158
157
156
156
159
161
162
161
160
159
161
159
161
159
161
160
162
162
160
162
164
165
165
164
165
164
165
163
166
167
167
167
168
168
168
166
170
168
168
169
170
171
171
169
170
172
172
171
173
172
173
173
174
177
176
176
177
178
176
179
179
179
179
178
176
176
177
177
176
175
176
176
174
176
174
171
171
172
171
169
169
169
167
167
166
164
163
162
162
161
157
157
156
159
159
157
156
153
152
151
151
151
152
150
150
149
150
149
150
149
146
147
148
148
148
147
147
148
147
147
148
147
149
146
147
151
150
150
146
146
146
148
150
149
150
150
150
150
149
149
150
150
149
151
151
150
149
151
149
150
150
147
148
150
150
149
148
147
147
149
150
149
149
148
147
150
151
151
150
150
150
149
147
149
151
149
149
149
148
148
148
148
150
148
149
147
147
148
149
148
147
147
149
147
150
151
150
149
150
150
149
148
148
151
150
150
152
152
151
150
149
150
151
150
152
151
151
152
154
154
154
153
155
155
156
157
156
156
157
154
154
153
153
154
154
154
153
153
150
151
151
151
152
149
147
150
151
151
150
149
149
150
150
151
150
150
149
151
151
149
150
149
148
148
151
150
150
150
149
149
150
152
153
153
156
160
163
168
172
176
177
178
179
173
166
159
154
147
138
130
121
118
115
114
116
119
121
125
128
133
136
138
142
146
147
148
150
150
151
152
153
153
154
155
154
154
154
155
156
157
158
158
159
159
158
159
160
161
162
161
160
161
161
159
162
162
163
162
162
161
163
163
164
163
163
164
164
167
165
166
165
167
168
167
167
167
167
168
168
169
170
169
170
170
169
170
174
173
175
175
174
175
175
176
174
176
176
175
176
176
176
177
176
179
179
178
176
175
174
174
176
175
174
174
174
173
173
174
172
172
170
171
169
166
164
164
162
162
163
160
159
158
159
156
157
155
155
155
153
152
151
152
152
151
148
149
149
149
148
148
149
147
148
147
146
146
147
148
148
146
148
148
147
147
146
146
145
147
147
146
146
146
149
148
149
147
146
148
148
148
146
147
147
147
148
151
151
150
149
148
149
150
150
148
148
147
147
147
150
149
148
148
148
148
146
147
148
147
149
149
151
148
147
149
148
147
149
150
149
149
146
147
148
149
148
149
149
146
147
147
149
147
148
147
146
147
148
151
150
148
147
148
147
149
149
150
149
149
150
150
150
150
150
150
149
150
150
151
151
152
153
151
152
153
154
154
153
156
153
154
153
155
154
152
151
153
153
152
150
150
148
150
150
148
147
148
149
148
148
148
148
148
147
148
150
148
149
147
145
147
147
147
149
149
148
147
149
148
148
147
150
153
152
154
154
158
164
168
171
176
177
178
177
173
165
158
152
144
136
128
123
118
116
117
118
119
121
127
130
133
136
138
142
146
147
149
148
149
150
151
152
152
153
154
154
153
153
154
155
155
155
157
156
155
156
156
158
158
159
159
160
159
159
159
159
160
161
160
164
162
160
161
162
164
164
163
162
163
162
164
165
164
164
166
166
166
166
165
168
167
168
170
169
168
170
170
169
170
170
170
170
171
172
173
174
173
176
175
176
175
173
176
176
176
176
174
174
174
174
174
175
173
172
172
171
169
169
168
168
168
169
167
166
166
164
162
162
162
159
159
158
156
154
154
155
154
152
153
153
152
149
150
150
149
148
150
148
146
146
146
145
145
146
145
147
145
143
147
147
146
146
145
145
145
146
146
146
147
147
146
145
145
146
147
146
146
146
147
149
148
147
147
146
148
148
147
147
146
147
148
149
149
149
149
148
147
146
150
149
149
148
147
146
146
147
148
149
147
148
148
147
148
148
146
145
147
146
147
147
146
147
145
145
149
147
148
147
146
145
148
147
147
147
146
148
147
149
149
148
149
149
148
148
147
146
146
146
148
148
147
147
147
147
148
149
150
148
150
148
149
148
148
150
148
149
152
152
152
153
154
151
151
154
154
154
155
153
153
154
152
155
153
152
149
151
151
150
149
150
149
149
148
148
148
150
150
147
148
148
149
148
147
146
147
147
149
146
147
147
148
147
148
146
149
149
151
153
153
154
155
157
163
166
173
175
177
180
180
178
172
165
156
148
139
131
125
120
117
116
116
120
121
125
127
133
136
140
142
145
146
147
149
149
152
154
152
154
154
155
154
154
154
153
155
156
155
158
156
156
158
158
160
158
159
159
161
160
162
160
162
161
163
160
161
162
163
164
163
163
163
163
164
165
166
164
164
163
166
166
167
167
167
167
167
167
167
168
169
169
170
171
172
172
171
172
173
172
174
175
176
174
173
176
177
176
176
176
178
174
176
174
176
176
174
174
173
174
174
174
172
172
171
172
169
168
167
167
168
167
166
165
163
164
163
160
158
160
158
156
156
153
154
152
152
152
151
151
152
149
149
150
149
147
147
147
146
144
145
146
148
148
146
146
146
144
145
145
145
146
146
147
146
147
147
147
146
146
148
147
147
147
145
147
147
147
147
148
147
148
147
148
147
150
147
146
146
146
147
148
148
150
148
148
148
147
148
148
146
150
147
146
146
147
148
148
150
147
149
147
146
145
148
148
149
147
148
144
147
146
146
146
148
147
148
148
147
149
148
150
149
148
148
149
147
147
147
146
148
148
148
148
148
147
147
149
148
148
147
147
147
149
149
149
148
150
148
150
150
148
150
151
150
151
150
151
150
151
150
150
153
156
154
154
153
156
156
154
155
155
156
155
154
152
151
153
153
152
151
148
147
148
150
149
150
149
148
150
148
149
150
150
151
148
148
147
148
147
148
148
150
149
150
147
147
147
149
149
148
150
149
152
154
157
159
163
168
173
177
183
177
178
174
171
163
157
146
137
128
123
118
116
115
117
119
121
125
129
134
136
140
144
144
145
148
148
149
149
152
154
152
153
155
153
152
155
158
156
156
157
158
156
157
158
159
159
160
159
160
161
158
158
159
161
161
161
160
162
161
163
163
164
163
164
164
164
164
164
165
165
167
167
165
165
166
167
168
167
168
168
169
170
170
171
170
170
173
174
173
172
172
173
174
174
176
175
175
175
175
175
174
175
174
176
175
175
175
174
177
174
172
173
173
173
170
171
171
169
169
170
169
167
164
164
164
161
161
161
162
159
156
155
156
154
154
154
153
151
151
151
150
151
150
149
148
149
149
148
148
146
148
146
148
145
145
147
145
147
147
147
147
145
146
146
148
149
148
146
145
149
148
148
148
146
147
147
148
148
147
148
148
147
148
148
149
149
148
148
146
148
149
147
147
147
148
147
147
149
150
149
148
147
146
147
150
148
147
147
147
147
148
149
149
150
148
146
147
147
147
149
148
146
149
147
146
146
147
148
149
149
149
147
146
144
147
147
148
147
147
149
149
148
146
147
147
147
148
147
146
146
147
147
147
151
149
147
147
147
148
147
147
146
147
147
147
147
148
148
150
148
150
149
148
150
149
149
150
150
150
150
150
150
151
151
153
154
153
151
153
154
152
153
153
155
155
155
155
155
153
153
153
153
152
149
149
149
149
148
148
147
148
150
147
147
145
146
147
151
150
149
149
146
147
147
146
147
147
145
144
146
147
149
150
151
150
151
153
155
159
165
169
173
177
179
182
179
175
170
164
154
144
137
126
121
114
114
113
115
117
122
125
130
131
136
141
143
146
145
146
148
150
151
152
150
151
152
153
155
152
153
155
156
156
158
156
157
156
157
158
159
159
161
159
159
160
159
159
161
163
162
162
161
161
163
162
164
163
162
162
164
164
164
165
167
166
167
167
167
166
166
166
169
168
169
168
168
168
170
169
171
173
172
173
173
173
173
173
174
174
175
175
174
174
175
175
177
176
175
174
175
175
175
174
175
173
173
175
173
173
171
170
169
170
167
168
167
165
164
163
165
165
162
161
159
159
157
158
157
158
156
153
154
152
151
152
149
150
149
149
148
148
148
148
147
148
148
148
148
147
146
145
145
147
147
147
146
146
147
146
145
148
147
147
145
146
147
147
148
148
148
147
147
148
148
149
148
149
148
148
147
148
148
149
148
149
149
150
148
147
149
149
148
147
150
148
147
147
148
149
147
149
149
149
149
148
148
149
150
149
147
147
146
147
148
147
149
148
147
147
147
147
147
149
147
149
147
147
146
148
148
147
149
150
149
148
149
148
149
150
149
148
148
149
148
146
148
148
151
149
148
149
147
149
149
148
148
152
149
150
148
149
148
150
150
150
150
151
150
150
149
151
152
151
152
149
148
151
151
151
151
151
154
153
153
154
154
156
156
156
157
156
155
155
154
154
156
156
155
154
151
151
150
151
151
151
149
150
149
147
149
149
151
148
148
150
149
149
150
151
150
148
149
149
149
147
147
147
149
151
150
150
151
151
150
153
156
162
166
169
175
177
179
181
180
176
169
163
152
145
138
128
120
119
116
115
115
118
122
125
130
134
138
142
144
144
146
147
148
152
152
152
153
154
153
155
155
156
154
153
156
156
157
158
159
158
157
158
159
158
159
158
159
158
160
160
161
161
161
162
163
164
163
163
164
163
162
165
164
165
165
167
168
168
167
166
166
168
170
169
169
169
169
167
171
169
170
172
172
172
173
173
174
172
175
174
177
175
174
174
177
177
175
176
176
176
175
175
175
175
177
174
175
173
172
173
173
171
171
170
169
169
167
169
168
168
168
164
164
162
164
163
159
160
159
159
156
154
156
155
154
152
154
153
150
151
150
150
149
150
150
148
148
147
148
146
146
148
148
147
147
147
145
146
145
146
149
146
147
146
144
146
148
147
147
147
147
146
147
146
147
146
147
149
148
147
148
149
149
150
148
148
148
149
149
150
150
149
148
150
147
146
147
148
148
145
149
148
148
146
147
147
147
149
148
148
148
148
149
148
148
150
149
150
146
149
148
148
148
148
151
151
148
148
148
148
148
148
148
148
149
147
148
148
147
149
150
149
148
148
148
149
148
147
148
150
149
148
151
151
151
149
149
149
151
150
151
149
149
149
149
148
150
151
150
151
153
154
151
152
154
153
155
154
155
156
156
156
155
154
155
155
156
155
155
153
152
151
151
152
149
150
151
150
148
147
149
147
149
149
149
149
148
147
148
147
148
148
149
149
148
147
151
149
148
150
149
151
150
152
151
153
157
159
164
166
171
175
175
177
176
176
172
165
156
148
140
131
124
117
117
115
116
117
119
124
126
129
132
137
142
144
145
147
148
150
152
152
152
153
154
153
154
155
156
157
158
155
157
159
160
160
159
158
158
159
159
158
158
158
159
158
158
159
160
161
161
162
163
162
162
161
162
162
165
164
164
164
163
165
165
167
167
168
167
167
167
167
168
169
171
169
168
168
170
171
171
172
171
172
171
171
172
172
175
175
176
177
178
177
177
175
177
176
177
176
176
177
174
175
173
